timestamp,sample_timestamp,unityTimestamp,localTimestamp,emg1,emg2,rms1,rms2,left_processed,right_processed
87300.1522055,87300.1522055,87300.1522055,87300.1522055,0.757098290605555,0.16650949156922484,0.757098290605555,0.16650949156922484,1.0,0.18848047134253573
87300.1572055,87300.1572055,87300.1572055,87300.1572055,0.07095853165157548,0.16621627141722037,0.5376955155345825,0.1663629460945027,1.0,0.18710679813883968
87300.1622055,87300.1622055,87300.1622055,87300.1622055,0.0697759485669723,0.16591150725571885,0.44087096292468686,0.16621260271747273,1.0,0.1856975245412018
87300.16720550001,87300.16720550001,87300.16720550001,87300.16720550001,0.06859139525249407,0.1655951972489232,0.38334266568994957,0.16605846655489975,1.0,0.18425269851263631
87300.17220550001,87300.17220550001,87300.17220550001,87300.17220550001,0.06740498797100279,0.16526736698130787,0.34419466287450673,0.16590054843019258,1.0,0.1827724215085223
87300.17720550002,87300.17720550002,87300.17720550002,87300.17720550002,0.4101663507837226,0.16492786130921847,0.3560398538253156,0.1657388303341667,1.0,0.1812565247161805
87300.18220550002,87300.18220550002,87300.18220550002,87300.18220550002,0.06502703729092107,0.16457694239822548,0.3305438766316049,0.1655733455310343,1.0,0.17970531994433148
87300.18720550003,87300.18720550003,87300.18720550003,87300.18720550003,0.06383517134676836,0.16420968679415923,0.31001808611583825,0.16540350301966508,1.0,0.17811326732613425
87300.19220550003,87300.19220550003,87300.19220550003,87300.19220550003,0.06264284373135977,0.163838675139246,0.2930327694269344,0.16523036510036332,1.0,0.17649032454513428
87300.19720550004,87300.19720550004,87300.19720550004,87300.19720550004,0.06144913690432312,0.1634554043011761,0.2786736141166681,0.1650537279663974,1.0,0.17483458117832804
87300.20220550004,87300.20220550004,87300.20220550004,87300.20220550004,0.06025405428611013,0.16305879331094467,0.26632522549871745,0.16487336772424535,1.0,0.17314393851518106
87300.20720550005,87300.20720550005,87300.20720550005,87300.20720550005,0.05905796518027624,0.16265109205639708,0.2555562929437147,0.164689323419182,1.0,0.17141876255435565
87300.21220550005,87300.21220550005,87300.21220550005,87300.21220550005,0.05786095916296338,0.16223200820122938,0.24605442127127744,0.1645016023920597,1.0,0.169659122106794
87300.21720550006,87300.21720550006,87300.21720550006,87300.21720550006,0.05666316577248374,0.16180169299353178,0.2375871015180121,0.16431022299292622,1.0,0.16786518918032498
87300.22220550006,87300.22220550006,87300.22220550006,87300.22220550006,0.05546470909607076,0.16136026366957337,0.2299772692047824,0.1641152087226747,1.0,0.1660371840652523
87300.22720550006,87300.22720550006,87300.22720550006,87300.22720550006,0.05426569578087677,0.16090748131127966,0.22308741714319036,0.16391656481905018,0.9397326591024403,0.1641751558586224
87300.23220550007,87300.23220550007,87300.23220550007,87300.23220550007,0.053066260344203635,0.16044366815543412,0.11882396048119422,0.163538031399002,0.0,0.1606268974302438
87300.23720550007,87300.23720550007,87300.23720550007,87300.23720550007,0.051866524305611256,0.1599690671790699,0.1182056366254322,0.16314817976920437,0.0,0.1569725455078415
87300.24220550008,87300.24220550008,87300.24220550008,87300.24220550008,0.05066659568482228,0.15948316673533922,0.1175955944647396,0.1627470255534916,0.0,0.15321224654453922
87300.24720550008,87300.24720550008,87300.24720550008,87300.24720550008,0.050533398075321125,0.15898654811079543,0.11702254756525635,0.1623346201431664,0.0,0.14934648226695157
87300.25220550009,87300.25220550009,87300.25220550009,87300.25220550009,0.051733335327482706,0.3228926482112632,0.1165228871829848,0.17652670159786846,0.0,0.2823787852838773
87300.2572055001,87300.2572055001,87300.2572055001,87300.2572055001,0.05293310602566473,0.15796040997802036,0.05690277354709202,0.17612799211737287,0.0,0.2786414025332001
87300.2622055001,87300.2622055001,87300.2622055001,87300.2622055001,0.054132580399737354,0.15743114839293956,0.056185313294226054,0.17571925588704143,0.0,0.27481003204529797
87300.2672055001,87300.2672055001,87300.2672055001,87300.2672055001,0.05533163769733973,0.15689106017346185,0.0556188434283538,0.175300829603935,0.0,0.2708878299171515
87300.2722055001,87300.2722055001,87300.2722055001,87300.2722055001,0.056530164104415345,0.1563403465525155,0.05520803015178381,0.17487232597062474,0.0,0.26687116573914976
87300.27720550011,87300.27720550011,87300.27720550011,87300.27720550011,0.05772804582915175,0.15577911762457852,0.054956435212818074,0.17443386112984455,0.0,0.26276112819834824
87300.28220550012,87300.28220550012,87300.28220550012,87300.28220550012,0.05892515036857434,0.1552072280410708,0.054866302630152866,0.17398560718110168,0.0,0.2585593305037656
87300.28720550012,87300.28720550012,87300.28720550012,87300.28720550012,0.2026821926591265,0.15462470813548754,0.07321082851887967,0.17352760708271897,0.0,0.25426617533379986
87300.29220550013,87300.29220550013,87300.29220550013,87300.29220550013,0.06131655233460331,0.15403183628497094,0.07338640694709618,0.17305993702002284,0.0,0.2498823768267864
87300.29720550013,87300.29720550013,87300.29720550013,87300.29720550013,0.06251061893794363,0.1534285420495653,0.07368255336166837,0.17258266107902295,0.0,0.2454085357057048
87300.30220550013,87300.30220550013,87300.30220550013,87300.30220550013,0.06370343451968849,0.15281490404622486,0.07409777844713623,0.17209584151879825,0.0,0.2408452355684355
87300.30720550014,87300.30720550014,87300.30720550014,87300.30720550014,0.305410343102564,0.15219096807850105,0.1055279596446652,0.1715995578213535,0.0,0.2361932214553854
87300.31220550014,87300.31220550014,87300.31220550014,87300.31220550014,0.0660848312944891,0.15155681656117742,0.10598631433130873,0.17109387589616043,0.0,0.231453111182119
87300.31720550015,87300.31720550015,87300.31720550015,87300.31720550015,0.0672731684270414,0.15091246158241403,0.10652614821466024,0.17057884879753077,0.0,0.2266254020637973
87300.32220550015,87300.32220550015,87300.32220550015,87300.32220550015,0.06845978050480354,0.1502580363162647,0.10714615067855472,0.17005456762447269,0.0,0.22171094803512317
87300.32720550016,87300.32720550016,87300.32720550016,87300.32720550016,0.06964456482575522,0.1495936813654306,0.10781393195351505,0.16952109797592624,0.0,0.21671036400083052
87300.33220550016,87300.33220550016,87300.33220550016,87300.33220550016,0.07082738754786332,0.14891937337483863,0.10849011579839435,0.15364646108048044,0.0,0.06790629234304489
87300.33720550017,87300.33720550017,87300.33720550017,87300.33720550017,0.3289825094731923,0.1482350303725348,0.13549660084318974,0.1530395972350807,0.06718285651784178,0.062217733182155455
87300.34220550017,87300.34220550017,87300.34220550017,87300.34220550017,0.07318662688235116,0.14754095881299772,0.13605495386392163,0.15242245183886757,0.0727449786510971,0.05643279785631396
87300.34720550018,87300.34720550018,87300.34720550018,87300.34720550018,0.07436282043290118,0.14683706171653396,0.13662069903273436,0.151795087849612,0.07838073883935699,0.05055207651272943
87300.35220550018,87300.35220550018,87300.35220550018,87300.35220550018,0.0755366017880379,0.14612357725100678,0.1371936508240952,0.15115756989661755,0.08408828894061574,0.04457617496705537
87300.35720550019,87300.35720550019,87300.35720550019,87300.35720550019,0.07670779938196487,0.14540036800723305,0.1377736196705195,0.1505099474539722,0.08986574054832176,0.03850555697451181
87300.36220550019,87300.36220550019,87300.36220550019,87300.36220550019,0.07787636271888805,0.14466774946277172,0.13836041679212213,0.149852298660212,0.09571121310172226,0.03234095498223412
87300.3672055002,87300.3672055002,87300.3672055002,87300.3672055002,0.07904204748653723,0.14392536445418447,0.1302558187299105,0.1491846785001888,0.014975974660860288,0.026082884401685935
87300.3722055002,87300.3722055002,87300.3722055002,87300.3722055002,0.08020496575057118,0.1431740330737463,0.13089556188733942,0.14850717363661198,0.021348877543824467,0.019732157583039433
87300.3772055002,87300.3772055002,87300.3772055002,87300.3772055002,0.08136482390801206,0.14241324914387793,0.13154158730189047,0.14781984515805427,0.027784362127054138,0.013289347152201808
87300.38220550021,87300.38220550021,87300.38220550021,87300.38220550021,0.08252150406761032,0.14164310054382503,0.13219367848501454,0.1471227546544529,0.034280271825546764,0.006755030434720341
87300.38720550021,87300.38720550021,87300.38720550021,87300.38720550021,0.08367493701738463,0.1408638049506173,0.10992290352595646,0.14641597414864005,0.0,0.00012988255096155408
87300.39220550022,87300.39220550022,87300.39220550022,87300.39220550022,0.08482498221702651,0.14007537304954196,0.11072397781028663,0.1456995713066646,0.0,0.0
87300.39720550022,87300.39720550022,87300.39720550022,87300.39720550022,0.08597160491151022,0.1392780892858696,0.1115297678466867,0.14497363043787323,0.0,0.0
87300.40220550023,87300.40220550023,87300.40220550023,87300.40220550023,0.08711460935623744,0.1384718215304993,0.11234000830945572,0.14423821967446493,0.0,0.0
87300.40720550023,87300.40720550023,87300.40720550023,87300.40720550023,0.08825391463616881,0.13765673399792908,0.11315443747107772,0.14349340819970222,0.0,0.0
87300.41220550024,87300.41220550024,87300.41220550024,87300.41220550024,0.0893893460031159,0.13683276997985283,0.11397279386501251,0.1427392636773136,0.0,0.0
87300.41720550024,87300.41720550024,87300.41720550024,87300.41720550024,0.09052083593612396,0.13600012235941641,0.08208276846484047,0.14197587105176016,0.0,0.0
87300.42220550025,87300.42220550025,87300.42220550025,87300.42220550025,0.09164833023387166,0.13515899472946225,0.08323326714041465,0.141203307924982,0.0,0.0
87300.42720550025,87300.42720550025,87300.42720550025,87300.42720550025,0.29086896122415357,0.13430938275815885,0.10894934364268914,0.14042165838703646,0.0,0.0
87300.43220550026,87300.43220550026,87300.43220550026,87300.43220550026,0.09389068630134913,0.13345121752097078,0.10983767410570532,0.13963098732369714,0.0,0.0
87300.43720550026,87300.43720550026,87300.43720550026,87300.43720550026,0.09500530982676193,0.1325847163408281,0.11072797660722235,0.13883138197251788,0.0,0.0
87300.44220550027,87300.44220550027,87300.44220550027,87300.44220550027,0.09611545247107399,0.13170999344575976,0.11162000526055711,0.13802291625062788,0.0,0.0
87300.44720550027,87300.44720550027,87300.44720550027,87300.44720550027,0.097221025482452,0.13082717105665678,0.11251352466338889,0.13720569519854653,0.0,0.0
87300.45220550027,87300.45220550027,87300.45220550027,87300.45220550027,0.5464253204248606,0.20800414560439204,0.17583665822028294,0.14229664559483524,0.4690367332995998,0.0
87300.45720550028,87300.45720550028,87300.45720550028,87300.45720550028,0.09941775237756799,0.12903712284315294,0.17641572720839177,0.1414969988861506,0.4748052208260395,0.0
87300.46220550028,87300.46220550028,87300.46220550028,87300.46220550028,0.10050879095559362,0.1281302532672301,0.17699794478489464,0.14068959737913578,0.48060507351492077,0.0
87300.46720550029,87300.46720550029,87300.46720550029,87300.46720550029,0.10159473333615356,0.12721550197384046,0.17758314145879786,0.1398745369448421,0.4864346029548401,0.0
87300.4722055003,87300.4722055003,87300.4722055003,87300.4722055003,0.10267560312230982,0.12629315899850185,0.17817115296015545,0.1390519303271705,0.49229217274468845,0.0
87300.4772055003,87300.4772055003,87300.4772055003,87300.4772055003,0.10375110697202007,0.2979947113148914,0.17876180578168757,0.1538606291136396,0.49817605446419105,0.06991383907075398
87300.4822055003,87300.4822055003,87300.4822055003,87300.4822055003,0.10482127081305317,0.12442544475967453,0.17935493353837004,0.15310877199837122,0.5040845906425521,0.06286615660761005
87300.4872055003,87300.4872055003,87300.4872055003,87300.4872055003,0.10588605533955156,0.12348053914294128,0.1799503713214446,0.15235132181442554,0.5100161385150328,0.05576604640090718
87300.49220550031,87300.49220550031,87300.49220550031,87300.49220550031,0.10694513843444052,0.12252813444568363,0.1805479482152022,0.15158841086310462,0.5159689954777018,0.04861474860325894
87300.49720550032,87300.49720550032,87300.49720550032,87300.49720550032,0.10799856660787911,0.12156852756720322,0.18114749762387888,0.15082017739287745,0.5219415019604453,0.04141355911423266
87300.50220550032,87300.50220550032,87300.50220550032,87300.50220550032,0.10904614041205392,0.1206016977281104,0.18174884776636135,0.1500467490025459,0.5279319467384704,0.034163674006619175
87300.50720550033,87300.50720550033,87300.50720550033,87300.50720550033,0.11008787546584856,0.11962788680469226,0.16882625801977716,0.14926826755547515,0.39920152032430634,0.026866423064935967
87300.51220550033,87300.51220550033,87300.51220550033,87300.51220550033,0.11112356982481673,0.16916313440262687,0.1694789576075446,0.15151385864156502,0.40570349074210615,0.047915918501550726
87300.51720550033,87300.51720550033,87300.51720550033,87300.51720550033,0.11215313584919555,0.1176593825075729,0.1701327037442698,0.15074154475711563,0.4122158865232608,0.040676480436867744
87300.52220550034,87300.52220550034,87300.52220550034,87300.52220550034,0.11317650575909859,0.11666494506074104,0.1707873186498136,0.14996487090414032,0.41873693668273027,0.033396173338566676
87300.52720550034,87300.52720550034,87300.52720550034,87300.52720550034,0.11419362370528607,0.1156639086000877,0.17144262657019047,0.14918398689845394,0.4252648904193247,0.026076401535035845
87300.53220550035,87300.53220550035,87300.53220550035,87300.53220550035,0.11520426409508498,0.11465624402616935,0.10752109646159301,0.14273535845583793,0.0,0.0
87300.53720550035,87300.53720550035,87300.53720550035,87300.53720550035,0.11620834514125193,0.11364207610172292,0.10856825875385721,0.141915041319916,0.0,0.0
87300.54220550036,87300.54220550036,87300.54220550036,87300.54220550036,0.11720585428825647,0.1126215918153344,0.10960960957005456,0.1410904684028192,0.0,0.0
87300.54720550036,87300.54720550036,87300.54720550036,87300.54720550036,0.11819654125990241,0.11159475276249473,0.11064503962157442,0.14026179301748945,0.0,0.0
87300.55220550037,87300.55220550037,87300.55220550037,87300.55220550037,0.5465445021852737,0.11056190513516206,0.17393350203421404,0.1394291715677248,0.45007814123950884,0.0
87300.55720550037,87300.55720550037,87300.55720550037,87300.55720550037,0.12015762301167734,0.10952293833494707,0.17459227006229255,0.12099646900707157,0.4566405633875138,0.0
87300.56220550038,87300.56220550038,87300.56220550038,87300.56220550038,0.12112765909230475,0.10847802245058508,0.17525049629572914,0.12003335948966816,0.46319758836230096,0.0
87300.56720550038,87300.56720550038,87300.56720550038,87300.56720550038,0.12209050000062055,0.10742719235220533,0.1759080044912363,0.11906439338538118,0.46974746048842164,0.0
87300.57220550039,87300.57220550039,87300.57220550039,87300.57220550039,0.12304619430849824,0.21358029623177485,0.17656463405868966,0.1268425883633367,0.476288580021893,0.0
87300.57720550039,87300.57720550039,87300.57720550039,87300.57720550039,0.3956686368326779,0.10530856959100152,0.20057590517497004,0.12593045290402827,0.7154806638193306,0.0
87300.5822055004,87300.5822055004,87300.5822055004,87300.5822055004,0.12493565178122434,0.10424088027733727,0.20115431826948357,0.1250142629672487,0.7212426175577401,0.0
87300.5872055004,87300.5872055004,87300.5872055004,87300.5872055004,0.12586914217133402,0.10316776142244068,0.20173197824739736,0.12409417059724039,0.7269970690057477,0.0
87300.5922055004,87300.5922055004,87300.5922055004,87300.5922055004,0.12679501034327598,0.10208930249942441,0.20230873430833918,0.11942462854855614,0.7327425159415385,0.0
87300.59720550041,87300.59720550041,87300.59720550041,87300.59720550041,0.12771329976843637,0.10100570257497336,0.20288444135394063,0.11846789969332684,0.7384775129447129,0.0
87300.60220550041,87300.60220550041,87300.60220550041,87300.60220550041,0.1286237020497862,0.09991692624983764,0.2034589454855024,0.11750717394832755,0.7442005269289798,0.0
87300.60720550042,87300.60720550042,87300.60720550042,87300.60720550042,0.12952634607013683,0.0988232247839211,0.2040321008138944,0.11654260617720567,0.7499101045966415,0.0
87300.61220550042,87300.61220550042,87300.61220550042,87300.61220550042,0.1304210315315086,0.0977246357696182,0.20460376242883327,0.1155743578327715,0.7556048024009376,0.0
87300.61720550043,87300.61720550043,87300.61720550043,87300.61720550043,0.13130761667434743,0.09662123948008303,0.2051737837049333,0.11460258981401716,0.7612831597098431,0.0
87300.62220550043,87300.62220550043,87300.62220550043,87300.62220550043,0.1321860821944863,0.09551318798454796,0.20574201873390918,0.11362746246210402,0.7669437230348426,0.0
87300.62720550044,87300.62720550044,87300.62720550044,87300.62720550044,0.13305637070915766,0.09440060795275482,0.2063083292949773,0.11264914822884735,0.7725851154676879,0.0
87300.63220550044,87300.63220550044,87300.63220550044,87300.63220550044,0.13391825530372037,0.09328353600539839,0.15815997321114475,0.11166780331901599,0.29294763324775397,0.0
87300.63720550045,87300.63720550045,87300.63720550045,87300.63720550045,0.13477179518539448,0.09216216151914815,0.15889438639157416,0.11068360390203237,0.3002636065731356,0.0
87300.64220550045,87300.64220550045,87300.64220550045,87300.64220550045,0.45472912848239055,0.09103660906515197,0.1930131936748837,0.10969672556620697,0.6401435142738416,0.0
87300.64720550046,87300.64720550046,87300.64720550046,87300.64720550046,0.13645346283616644,0.08990692682247568,0.1936134913059441,0.10870734779476382,0.6461234742924783,0.0
87300.65220550046,87300.65220550046,87300.65220550046,87300.65220550046,0.13728136697500096,0.08877326366469077,0.19421070259442938,0.0972563458200723,0.6520726892202665,0.0
87300.65720550047,87300.65720550047,87300.65720550047,87300.65720550047,0.13810051650669372,0.08763571102204773,0.1706610006932487,0.09615445642734563,0.417478600332877,0.0
87300.66220550047,87300.66220550047,87300.66220550047,87300.66220550047,0.13891067580519306,0.08649432038960182,0.171334850017552,0.09504800701227178,0.4241912572041044,0.0
87300.66720550047,87300.66720550047,87300.66720550047,87300.66720550047,0.16893612732626967,0.08534940935811466,0.17363511803737364,0.0939371175550895,0.4471057417513505,0.0
87300.67220550048,87300.67220550048,87300.67220550048,87300.67220550048,0.14050477103512737,0.08420092435751543,0.17429340985270442,0.0928219003154631,0.4536634200305735,0.0
87300.67720550048,87300.67720550048,87300.67720550048,87300.67720550048,0.14128813415733374,0.08304898074175973,0.17494690862609633,0.09170246183321686,0.46017335166266843,0.0
87300.68220550049,87300.68220550049,87300.68220550049,87300.68220550049,0.14206237333023297,0.08189373580859255,0.17559548588169724,0.0905789213593019,0.4666342568150666,0.0
87300.6872055005,87300.6872055005,87300.6872055005,87300.6872055005,0.1428275220965285,0.08073534156022526,0.1762390105322923,0.08945139096668174,0.47304482964169564,0.0
87300.6922055005,87300.6922055005,87300.6922055005,87300.6922055005,0.1435833782667482,0.07957386902790672,0.17687735199552332,0.08831998560976739,0.47940376932569295,0.0
87300.6972055005,87300.6972055005,87300.6972055005,87300.6972055005,0.14432977111080575,0.07840940609909797,0.1775103791006621,0.08718482120468922,0.4857097691890548,0.0
87300.7022055005,87300.7022055005,87300.7022055005,87300.7022055005,0.14506678502780404,0.07724211924848284,0.1781379673889995,0.08604601410107679,0.49196158941661894,0.0
87300.70720550051,87300.70720550051,87300.70720550051,87300.70720550051,0.14579427924355512,0.07607210477938753,0.17875998938548915,0.08490367889064042,0.4981579601455022,0.0
87300.71220550052,87300.71220550052,87300.71220550052,87300.71220550052,0.14651207139646544,0.07489945188536551,0.17937632035104534,0.08375793426211088,0.5042976387675271,0.0
87300.71720550052,87300.71720550052,87300.71720550052,87300.71720550052,0.14722054699428047,0.07372439468132473,0.17998685395097172,0.08260890054382139,0.5103795660127585,0.0
87300.72220550053,87300.72220550053,87300.72220550053,87300.72220550053,0.14791911205863778,0.07254691627637656,0.14435757794114848,0.08145669020101798,0.1554528846341398,0.0
87300.72720550053,87300.72720550053,87300.72720550053,87300.72720550053,0.14860781873562537,0.07136716843685881,0.14510567296239998,0.0803014225030085,0.1629051517858905,0.0
87300.73220550054,87300.73220550054,87300.73220550054,87300.73220550054,0.1492867107674288,0.07018529482801583,0.14584470540337774,0.07914321613557666,0.1702671406075285,0.0
87300.73720550054,87300.73720550054,87300.73720550054,87300.73720550054,0.14995576116259274,0.0690014196311049,0.14657460283794171,0.07798219212955354,0.17753812961457807,0.0
87300.74220550054,87300.74220550054,87300.74220550054,87300.74220550054,0.15061472323873434,0.0678156260687581,0.1472952914550459,0.07681847446607822,0.18471738352660297,0.0
87300.74720550055,87300.74720550055,87300.74720550055,87300.74720550055,0.1512635433367434,0.06662803803565899,0.14608980341386338,0.07565217366483529,0.17270872329504047,0.0
87300.75220550055,87300.75220550055,87300.75220550055,87300.75220550055,0.15190237042512142,0.0654388099354048,0.14680097710019618,0.07448341437298824,0.1797931927157581,0.0
87300.75720550056,87300.75720550056,87300.75720550056,87300.75720550056,0.15253106391209428,0.06424804517695161,0.1475025039290969,0.0733123209176614,0.18678156343682314,0.0
87300.76220550056,87300.76220550056,87300.76220550056,87300.76220550056,0.15314940576881603,0.06305584077019921,0.14819430682738263,0.07213901400416765,0.19367306768150586,0.0
87300.76720550057,87300.76720550057,87300.76720550057,87300.76720550057,0.1537574900669084,0.08183812032745863,0.14887631315546304,0.07221663590621853,0.20046698183901102,0.0
87300.77220550057,87300.77220550057,87300.77220550057,87300.77220550057,0.15435506747107675,0.06066763355496774,0.1495484466317948,0.07106002794946972,0.2071625460186519,0.0
87300.77720550058,87300.77720550058,87300.77720550058,87300.77720550058,0.1549422631670618,0.059471869547632915,0.1502106496570229,0.0699023021158585,0.21375918643532185,0.0
87300.78220550058,87300.78220550058,87300.78220550058,87300.78220550058,0.1555190420487433,0.05827516511207154,0.15086285755770323,0.06874361758573959,0.2202562588342547,0.0
87300.78720550059,87300.78720550059,87300.78720550059,87300.78720550059,0.15608515427129283,0.05707762442789482,0.1515049983027291,0.06758413711125015,0.22665304566616185,0.0
87300.79220550059,87300.79220550059,87300.79220550059,87300.79220550059,0.15664083416439967,0.09644879009294238,0.15213702623666994,0.06927043500062835,0.232949092127234,0.0
87300.7972055006,87300.7972055006,87300.7972055006,87300.7972055006,0.15718565180363003,0.05468055095203106,0.15275884502006587,0.0681583482249746,0.2391434385166683,0.0
87300.8022055006,87300.8022055006,87300.8022055006,87300.8022055006,0.6206522398523795,0.05348125222539481,0.21457710951301862,0.06704763055213765,0.8549558804820943,0.0
87300.8072055006,87300.8072055006,87300.8072055006,87300.8072055006,0.8022984073406471,0.05228160619836825,0.29136444376666937,0.0659385366356813,1.0,0.0
87300.81220550061,87300.81220550061,87300.81220550061,87300.81220550061,0.4401679674152838,0.051081728695543664,0.30920797440700354,0.06483132788962397,1.0,0.0
87300.81720550061,87300.81720550061,87300.81720550061,87300.81720550061,0.15925757081875602,0.050133438935172046,0.3094985244863206,0.06373861810319048,1.0,0.0
87300.82220550062,87300.82220550062,87300.82220550062,87300.82220550062,0.15974837706711895,0.2745304057763496,0.3097846162726059,0.09211737334777682,1.0,0.0
87300.82720550062,87300.82720550062,87300.82720550062,87300.82720550062,0.16022817379269413,0.05251806867210792,0.31006617678739223,0.09154528238953193,1.0,0.0
87300.83220550063,87300.83220550063,87300.83220550063,87300.83220550063,0.16069706790916313,0.053717660526517295,0.3103431328077276,0.0910672721299845,1.0,0.0
87300.83720550063,87300.83720550063,87300.83720550063,87300.83720550063,0.16115466564749747,0.05491687286387361,0.310615403483194,0.09068490105415622,1.0,0.0
87300.84220550064,87300.84220550064,87300.84220550064,87300.84220550064,0.16160131791534094,0.05611560025952425,0.3108829268753223,0.09039944068012938,1.0,0.0
87300.84720550064,87300.84720550064,87300.84720550064,87300.84720550064,0.16203685436638599,0.05731371978604892,0.3111456335044683,0.08921194095434541,1.0,0.0
87300.85220550065,87300.85220550065,87300.85220550065,87300.85220550065,0.1624609840488143,0.05851109442963592,0.3114034529820658,0.0891218663374973,1.0,0.0
87300.85720550065,87300.85720550065,87300.85720550065,87300.85720550065,0.45678167062992925,0.05970762956966271,0.32941199110826597,0.0891317180893666,1.0,0.0
87300.86220550066,87300.86220550066,87300.86220550066,87300.86220550066,0.16327571556216308,0.06090318807997459,0.329646491053975,0.08924146113300654,1.0,0.0
87300.8863009,87300.8863009,87300.8863009,87300.8863009,0.16505206525369706,0.33081491417343256,0.32991936078076256,0.12083182175851546,1.0,0.0
87300.89130090001,87300.89130090001,87300.89130090001,87300.89130090001,0.16538742728603678,0.06783482683233608,0.3301860464253796,0.11960990265564526,1.0,0.0
87300.89630090001,87300.89630090001,87300.89630090001,87300.89630090001,0.16568804442369528,0.06901642523451991,0.33044575982644103,0.12007231292861122,1.0,0.0
87300.90130090002,87300.90130090002,87300.90130090002,87300.90130090002,0.16597791941722406,0.07019612486339774,0.29468732050860685,0.12060913546417794,1.0,0.0
87300.90630090002,87300.90630090002,87300.90630090002,87300.90630090002,0.16626779441075284,0.07137582449227557,0.21985963063588373,0.12121936697933568,0.907578552100065,0.0
87300.91130090003,87300.91130090003,87300.91130090003,87300.91130090003,0.16655766940428163,0.0725555241211534,0.1948405971288516,0.121901886769623,0.6583474834838202,0.0
87300.91630090003,87300.91630090003,87300.91630090003,87300.91630090003,0.16684754439781044,0.07373522375003123,0.19523717336884894,0.12264905255695628,0.6622980405688718,0.0
87300.92130090004,87300.92130090004,87300.92130090004,87300.92130090004,0.16713741939133922,0.07491492337890907,0.19562340012543003,0.10335918668018976,0.6661454996341405,0.0
87300.92630090004,87300.92630090004,87300.92630090004,87300.92630090004,0.1674093849309456,0.07609104902177058,0.19599889497650258,0.10427177342863166,0.6698860511213274,0.0
87300.93130090005,87300.93130090005,87300.93130090005,87300.93130090005,0.16765116613577347,0.07726093766037528,0.1963626166025887,0.10519188097797418,0.6735093217613703,0.0
87300.93630090005,87300.93630090005,87300.93630090005,87300.93630090005,0.167881931279739,0.07842827479617881,0.19671456983636568,0.10611916666574264,0.6770153596957504,0.0
87300.94130090006,87300.94130090006,87300.94130090006,87300.94130090006,0.16810047855539118,0.5055193840697879,0.19705467780432773,0.16442728780891222,0.6804033991368525,0.16896251955589936
87300.94630090006,87300.94630090006,87300.94630090006,87300.94630090006,0.16830714224829285,0.08075408477984453,0.19738289070229598,0.165041223515527,0.6836729439524535,0.1747173682168213
87300.95130090007,87300.95130090007,87300.95130090007,87300.95130090007,0.41518624814827504,0.08191245553949689,0.21928094678762622,0.1656622674210226,0.9018139012053114,0.18053884699612568
87300.95630090007,87300.95630090007,87300.95630090007,87300.95630090007,0.16868525390191566,0.08306765107230345,0.19189048931710517,0.16629022505453991,0.6289595168284323,0.1864251329824697
87300.96130090008,87300.96130090008,87300.96130090008,87300.96130090008,0.16885638993117705,0.08421949721780303,0.19219210431459946,0.16692489863939322,0.6319641024418237,0.19237437227668686
87300.96630090008,87300.96630090008,87300.96630090008,87300.96630090008,0.16901576937287388,0.08536795834338398,0.19240728699593473,0.14655884685095127,0.6341076788354452,0.0014691282907340485
87300.97130090008,87300.97130090008,87300.97130090008,87300.97130090008,0.16916312131911113,0.08651284526966375,0.19261233506974348,0.14717227110383455,0.6361502977295241,0.007219182738206343
87300.97630090009,87300.97630090009,87300.97630090009,87300.97630090009,0.16929875210370332,0.08765414130683326,0.1928084744855677,0.1477909883175086,0.6381041716147762,0.013018851808172308
87300.9813009001,87300.9813009001,87300.9813009001,87300.9813009001,0.16942184985370307,0.08879147832856016,0.1929955988502408,0.14841480096417878,0.6399682406388056,0.018866283934495423
87300.9863009001,87300.9863009001,87300.9863009001,87300.9863009001,0.16953385391037828,0.08992521083096261,0.19317310355166203,0.1490434679768015,0.6417364818623199,0.024759219427214454
87300.9913009001,87300.9913009001,87300.9913009001,87300.9913009001,0.626352536327391,0.09105481412924929,0.2451567877781059,0.14967672678151375,1.0,0.03069519699791135
87300.99630090011,87300.99630090011,87300.99630090011,87300.99630090011,0.16972120722435868,0.09218032951915239,0.2452800433444625,0.15031431455645677,1.0,0.03667175303353116
87301.00130090011,87301.00130090011,87301.00130090011,87301.00130090011,0.4285728123209686,0.09330160952758945,0.26437857953946575,0.150955961120456,1.0,0.04268635493700558
87301.00630090012,87301.00630090012,87301.00630090012,87301.00630090012,0.1698607300347099,0.09441859619869833,0.264476286573326,0.15160150451341778,1.0,0.04873748454312916
87301.01130090012,87301.01130090012,87301.01130090012,87301.01130090012,0.1699125524664983,0.7212552914386879,0.2645664685543187,0.2347829052646103,1.0,0.8284549167904408
87301.01630090013,87301.01630090013,87301.01630090013,87301.01630090013,0.16995235641921913,0.09663911464865547,0.26464907438142066,0.23520686717552838,1.0,0.8324290082287481
87301.02130090013,87301.02130090013,87301.02130090013,87301.02130090013,0.16998013107351173,0.09774241521955528,0.2647241010944579,0.19986871596236003,1.0,0.5011798073801578
87301.02630090014,87301.02630090014,87301.02630090014,87301.02630090014,0.16999588385632416,0.09884093172870012,0.2647915337582338,0.20037595375684553,1.0,0.505934501904214
87301.03130090014,87301.03130090014,87301.03130090014,87301.03130090014,0.16999968286324002,0.09993458236880248,0.24727934268792637,0.2008864162723809,1.0,0.5107194239934953
87301.03630090014,87301.03630090014,87301.03630090014,87301.03630090014,0.16999136238277637,0.24190447265934334,0.24733523828040122,0.208761702534566,1.0,0.5845399887725209
87301.04130090015,87301.04130090015,87301.04130090015,87301.04130090015,0.16997124229063565,0.1021067777801067,0.24738296024443532,0.20926001252614929,1.0,0.589210996757379
87301.04630090015,87301.04630090015,87301.04630090015,87301.04630090015,0.1699390210797051,0.10318511141642638,0.24742248848094095,0.2097611028624899,1.0,0.5939080668577503
87301.05130090016,87301.05130090016,87301.05130090016,87301.05130090016,0.16989495949927713,0.128923734228946,0.2474538265700364,0.21111791451051296,1.0,0.6066264111593114
87301.05630090016,87301.05630090016,87301.05630090016,87301.05630090016,0.16983872544590217,0.10532577189950525,0.24747695167223097,0.21162210585355334,1.0,0.6113525491637996
87301.06130090017,87301.06130090017,87301.06130090017,87301.06130090017,0.16977047662416028,0.24184615609899013,0.2474918833604725,0.21896750437712875,1.0,0.6802061056549519
87301.06630090017,87301.06630090017,87301.06630090017,87301.06630090017,0.16969044544526643,0.10744428197755691,0.24749859051653292,0.21946042037190985,1.0,0.6848265519361337
87301.07130090018,87301.07130090018,87301.07130090018,87301.07130090018,0.16959830717058735,0.10849495374909689,0.19629934458533294,0.21995542070638324,0.6728790275307909,0.6894665361906862
87301.07630090018,87301.07630090018,87301.07630090018,87301.07630090018,0.16949417092930388,0.47319805808851007,0.1962870838770694,0.24868471286430513,0.6727568905416998,0.9587662799959327
87301.08130090019,87301.08130090019,87301.08130090019,87301.08130090019,0.1693780916454365,0.11057860772258513,0.16982936127554704,0.24912695317145242,0.4091940924313661,0.9629117076229158
87301.08630090019,87301.08630090019,87301.08630090019,87301.08630090019,0.16925019268586877,0.11161146100572551,0.16979125995918554,0.24957089018748216,0.40881454012812485,0.9670730396886454
87301.0913009002,87301.0913009002,87301.0913009002,87301.0913009002,0.16911027008153043,0.11263810232868342,0.1697411925730263,0.17482995565896609,0.40831578592357975,0.2664739991813417
87301.0963009002,87301.0963009002,87301.0963009002,87301.0963009002,0.47751625771624095,0.11365848215663248,0.20312113569073278,0.17546854177058532,0.7408353811044699,0.27245991332469555
87301.1013009002,87301.1013009002,87301.1013009002,87301.1013009002,0.16879489101615724,0.11467258996605235,0.20305935131478148,0.17610784507903474,0.7402199062485845,0.2784525502554248
87301.10630090021,87301.10630090021,87301.10630090021,87301.10630090021,0.16861923943756355,0.11568011054750213,0.2029875996647466,0.1767476887694337,0.7395051408117764,0.28445025256401896
87301.11130090021,87301.11130090021,87301.11130090021,87301.11130090021,0.1684316379777482,0.5664647483141521,0.20290588556963302,0.22510154904159008,0.738691132898943,0.7377047954085689
87301.11630090022,87301.11630090022,87301.11630090022,87301.11630090022,0.16823249473444707,0.11767541522707135,0.2028142443500603,0.21881228364043043,0.7377782343620356,0.6787511131547418
87301.12130090022,87301.12130090022,87301.12130090022,87301.12130090022,0.16802140594399254,0.11866298209037773,0.20271267428156617,0.21933367228964584,0.7367664280225501,0.6836384535348965
87301.12630090023,87301.12630090023,87301.12630090023,87301.12630090023,0.16779845560961146,0.1196436477166175,0.20260119444514504,0.2198555764618426,0.7356559039588371,0.6885306262724249
87301.13130090023,87301.13130090023,87301.13130090023,87301.13130090023,0.16756389320577725,0.12061744894915645,0.20247982382397509,0.21956075921105703,0.7344468512748353,0.6857670980354779
87301.13630090024,87301.13630090024,87301.13630090024,87301.13630090024,0.16731736993619695,0.12158406591060904,0.20234858143095008,0.22008521057514588,0.7331394593705005,0.6906831473836862
87301.14130090024,87301.14130090024,87301.14130090024,87301.14130090024,0.1670592726250615,0.12254362058489755,0.20220749867875598,0.21382343392807462,0.7317340411682837,0.631987136442916
87301.14630090025,87301.14630090025,87301.14630090025,87301.14630090025,0.1667894226038914,0.1473069470348264,0.20205658622150752,0.21530246707593534,0.7302307028008377,0.6458511483235057
87301.15130090025,87301.15130090025,87301.15130090025,87301.15130090025,0.16650779187645695,0.124440751182552,0.20189587098432024,0.21584091115182594,0.7286297124869697,0.6508983611435684
87301.15630090026,87301.15630090026,87301.15630090026,87301.15630090026,0.16621461111556682,0.1253782293573506,0.20172538674172302,0.18323483584045472,0.7269314066770033,0.3452588180744364
87301.16130090026,87301.16130090026,87301.16130090026,87301.16130090026,0.622748080877558,0.12630807684230058,0.25127379748055645,0.18386921011234272,1.0,0.3512052516989409
87301.16630090027,87301.16630090027,87301.16630090027,87301.16630090027,0.1655933095101797,0.12723040960826576,0.2511214667789183,0.18450214120347014,1.0,0.35713815738105975
87301.17130090027,87301.17130090027,87301.17130090027,87301.17130090027,0.165265375297738,0.35312896964017815,0.25096142856776565,0.20258784650762784,1.0,0.5266681192810734
87301.17630090028,87301.17630090028,87301.17630090028,87301.17630090028,0.16492591335220477,0.1290517938876164,0.22456694416310966,0.2031633400402606,0.9544712020648394,0.5320626225653056
87301.18130090028,87301.18130090028,87301.18130090028,87301.18130090028,0.1645748988735338,0.12995063255278327,0.2243710905896458,0.20373739957853515,0.9525201756435755,0.5374436840177252
87301.18630090028,87301.18630090028,87301.18630090028,87301.18630090028,0.16421237087911097,0.4459931891584986,0.22416671189086998,0.23044398513953793,0.9504842248350049,0.7877831845510783
87301.19130090029,87301.19130090029,87301.19130090029,87301.19130090029,0.16383861877974032,0.1317242958519431,0.22395386129893124,0.18475319070772156,0.9483638799196196,0.35949141992598116
87301.1963009003,87301.1963009003,87301.1963009003,87301.1963009003,0.16345319533117597,0.13259877619942764,0.2237325533184949,0.1853838578004538,0.9461592853879423,0.3654031035680844
87301.2013009003,87301.2013009003,87301.2013009003,87301.2013009003,0.16305661057772336,0.133465129209709,0.22350284562342684,0.1860119003457919,0.9438710157673315,0.37129018549229775
87301.2063009003,87301.2063009003,87301.2063009003,87301.2063009003,0.1626487566495318,0.13432316345572354,0.2232647879149019,0.18663717189473872,0.9414995661639193,0.37715129292976923
87301.21130090031,87301.21130090031,87301.21130090031,87301.21130090031,0.1622296001243868,0.13517273778732242,0.22301841757089524,0.18725951961378656,0.9390453089243312,0.38298499326516544
87301.21630090031,87301.21630090031,87301.21630090031,87301.21630090031,0.1617991288221873,0.1360137248021188,0.22276378871722954,0.18787879923420192,0.9365087832315304,0.38878993416676993
87301.22130090032,87301.22130090032,87301.22130090032,87301.22130090032,0.6292561003345327,0.1368462701397379,0.2694941706531749,0.1884948696138823,1.0,0.39456479261096505
87301.22630090032,87301.22630090032,87301.22630090032,87301.22630090032,0.16090487233706263,0.13766995015654693,0.269270472144871,0.1880390139810514,1.0,0.39029173901609315
87301.23130090033,87301.23130090033,87301.23130090033,87301.23130090033,0.16044105353686391,0.13848492830037692,0.26904017841328004,0.18865168089546333,1.0,0.39603469440051897
87301.23630090033,87301.23630090033,87301.23630090033,87301.23630090033,0.15996629406405488,0.1392911417457063,0.26880334353141444,0.18926067160251783,1.0,0.40174319012286597
87301.24130090034,87301.24130090034,87301.24130090034,87301.24130090034,0.15948034957699447,0.14008827292579046,0.2227249718772011,0.18986584457563513,0.9361221031258472,0.4074158995555419
87301.24630090034,87301.24630090034,87301.24630090034,87301.24630090034,0.15898359678661944,0.3329331240685874,0.22242375792840183,0.20485383675862806,0.9331215126226103,0.5479088303541194
87301.25130090035,87301.25130090035,87301.25130090035,87301.25130090035,0.1584758699968493,0.1416555955685471,0.22211472353195555,0.1882165889195935,0.930043017490341,0.39195627308093367
87301.25630090035,87301.25630090035,87301.25630090035,87301.25630090035,0.1579573970955169,0.14242560209623709,0.22179793576544007,0.1888184372848855,0.9268872859329643,0.39759781863979465
87301.26130090035,87301.26130090035,87301.26130090035,87301.26130090035,0.15742807329129715,0.1431863195898741,0.22147345917145764,0.1894158110078401,0.9236549609018446,0.4031974202472189
87301.26630090036,87301.26630090036,87301.26630090036,87301.26630090036,0.15688802020215195,0.14393773063221008,0.22114136287835676,0.1572938605127174,0.9203467310299848,0.10209591759581915
87301.27130090036,87301.27130090036,87301.27130090036,87301.27130090036,0.1563371732276556,0.35347133712999584,0.22080170073228517,0.17738595507654423,0.9169631327143218,0.29043316895609544
87301.27630090037,87301.27630090037,87301.27630090037,87301.27630090037,0.15577587079372276,0.14541227010111774,0.22045456328882784,0.17801241631222292,0.9135050680386715,0.29630542815917055
87301.28130090037,87301.28130090037,87301.28130090037,87301.28130090037,0.1552037804374837,0.14613515409476255,0.22010000380606484,0.1786332255503568,0.9099730675418415,0.3021247072372067
87301.28630090038,87301.28630090038,87301.28630090038,87301.28630090038,0.15462138817265753,0.14684862416255334,0.2197381029839382,0.1792482696056778,0.9063679351290977,0.3078899452255438
87301.29130090038,87301.29130090038,87301.29130090038,87301.29130090038,0.15402829628515866,0.6503138560807262,0.21936892660363094,0.2396241219175017,0.9026903260901238,0.8738350256063085
87301.29630090039,87301.29630090039,87301.29630090039,87301.29630090039,0.1534250033918774,0.14824618748491347,0.2189925639328089,0.24007716411148483,0.8989411296789243,0.8780817068716171
87301.30130090039,87301.30130090039,87301.30130090039,87301.30130090039,0.15281137620404056,0.15159476196374855,0.15706526625399145,0.2406302643383481,0.2820425363471775,0.8832663020427806
87301.3063009004,87301.3063009004,87301.3063009004,87301.3063009004,0.15218737456957848,0.14960457184123074,0.15652128147067781,0.24107510481543717,0.2766235456888003,0.887436102880747
87301.3113009004,87301.3113009004,87301.3113009004,87301.3113009004,0.15155310549355216,0.1502687641363399,0.15596666249881158,0.2415157764900006,0.2710986208752893,0.8915668266176854
87301.3163009004,87301.3163009004,87301.3163009004,87301.3163009004,0.1509087797872015,0.15092302639182584,0.15540146427008128,0.24195217275625105,0.26546830911736835,0.8956574739630083
87301.32130090041,87301.32130090041,87301.32130090041,87301.32130090041,0.15025426221255658,0.4276384494263725,0.15482574942665484,0.2621907203783147,0.259733234434924,1.0
87301.32630090041,87301.32630090041,87301.32630090041,87301.32630090041,0.14958973947160373,0.15220102598785823,0.1542395679366146,0.25152339215887065,0.2538938945929303,0.9853752059161963
87301.33130090042,87301.33130090042,87301.33130090042,87301.33130090042,0.7634746558998107,0.15282490752396446,0.24217974444439672,0.25193171364646477,1.0,0.9892026887304205
87301.33630090042,87301.33630090042,87301.33630090042,87301.33630090042,0.14823110178429097,0.32602071473418076,0.24179515841738938,0.2623830534443893,1.0,1.0
87301.34130090043,87301.34130090043,87301.34130090043,87301.34130090043,0.1475369761482467,0.15404154906814438,0.24140499415093472,0.2627670480290527,1.0,1.0
87301.34630090043,87301.34630090043,87301.34630090043,87301.34630090043,0.14683299469204383,0.15463419417945012,0.24100933807939479,0.26314658559779197,1.0,1.0
87301.35130090044,87301.35130090044,87301.35130090044,87301.35130090044,0.14611939632414056,0.15521644642184274,0.24060828940842902,0.25088445638079276,1.0,0.9793860141046279
87301.35630090044,87301.35630090044,87301.35630090044,87301.35630090044,0.14539629743955026,0.15578830009954123,0.24020193904041356,0.2512734358979923,1.0,0.9830321911058401
87301.36130090045,87301.36130090045,87301.36130090045,87301.36130090045,0.14466346649107442,0.15634936160963855,0.23979038363948216,0.2516573902428111,1.0,0.9866312636525719
87301.36630090045,87301.36630090045,87301.36630090045,87301.36630090045,0.1439213012627833,0.15689993583607276,0.23937371626969794,0.25203622562888767,1.0,0.9901823526196787
87301.37130090046,87301.37130090046,87301.37130090046,87301.37130090046,0.14316966237166648,0.1574397271338131,0.2389520418435677,0.1965698509336877,1.0,0.47025723879802234
87301.37630090046,87301.37630090046,87301.37630090046,87301.37630090046,0.14240876846889616,0.15796884546086729,0.23852545441870454,0.1970425913301967,1.0,0.4746885650891978
87301.38130090047,87301.38130090047,87301.38130090047,87301.38130090047,0.1416386734273036,0.15848721449976005,0.23809405646761556,0.1973812538709904,1.0,0.4778630858873732
87301.38630090047,87301.38630090047,87301.38630090047,87301.38630090047,0.14085930700242758,0.15899460756271325,0.2376579505026721,0.19783950366919476,1.0,0.48215858166836517
87301.39130090048,87301.39130090048,87301.39130090048,87301.39130090048,0.14007088714067026,0.26111299334120613,0.23721724387069273,0.20491565356411204,1.0,0.5484882824961417
87301.39630090048,87301.39630090048,87301.39630090048,87301.39630090048,0.13927351657317685,0.15997679068910367,0.23677204031984014,0.20534446895303032,1.0,0.5525078689774466
87301.40130090048,87301.40130090048,87301.40130090048,87301.40130090048,0.13846715447179714,0.16045136545004796,0.23632244851976042,0.1798491750260175,1.0,0.3135226519020305
87301.40630090049,87301.40630090049,87301.40630090049,87301.40630090049,0.137651948139358,0.1609148975491546,0.23586857615277187,0.18032263863387402,1.0,0.31796075735885815
87301.4113009005,87301.4113009005,87301.4113009005,87301.4113009005,0.13682800971373835,0.16136737978647603,0.1427349198475674,0.18078717511233477,0.1392885187904975,0.3223151825897345
87301.4163009005,87301.4163009005,87301.4163009005,87301.4163009005,0.1359954143754146,0.16180875909419887,0.14197147836300159,0.1663649247598082,0.13168337541152453,0.18712534555229224
87301.4213009005,87301.4213009005,87301.4213009005,87301.4213009005,0.13515413952270602,0.16223885358240764,0.14119886083029637,0.16685121699769803,0.12398682337430678,0.1916837027285966
87301.42630090051,87301.42630090051,87301.42630090051,87301.42630090051,0.1343043978649049,0.16265778756800278,0.1404171543455418,0.1673273512580946,0.11619973030035298,0.19614684207908478
87301.43130090051,87301.43130090051,87301.43130090051,87301.43130090051,0.13344631413024177,0.16306557550300696,0.13962643833744634,0.16779327242530806,0.10832288743133435,0.20051424696585754
87301.43630090052,87301.43630090052,87301.43630090052,87301.43630090052,0.13257970149772974,0.16346180719444353,0.1388267739092743,0.16824890124129843,0.10035690345710546,0.20478517444788605
87301.44130090052,87301.44130090052,87301.44130090052,87301.44130090052,0.1317049090031994,0.16384679819305079,0.1380182585256465,0.16869420090522524,0.09230274928693764,0.20895927956516044
87301.44630090053,87301.44630090053,87301.44630090053,87301.44630090053,0.13082191693887935,0.42843696054338115,0.13720096300172815,0.19593754968087518,0.08416113035732588,0.46433023703083137
87301.45130090053,87301.45130090053,87301.45130090053,87301.45130090053,0.1299309886217684,0.16458271264597132,0.13637498340014528,0.1963040651039007,0.07593300361134836,0.4677658423697616
87301.45630090054,87301.45630090054,87301.45630090054,87301.45630090054,0.12903191576724396,0.16493338839755056,0.1355403896233462,0.19666174038388887,0.06761906539332564,0.47111858286670155
87301.46130090054,87301.46130090054,87301.46130090054,87301.46130090054,0.26662353541587025,0.16527263630675101,0.1468344627751323,0.19701051514529183,0.18012676557520996,0.47438789257942465
87301.46630090055,87301.46630090055,87301.46630090055,87301.46630090055,0.540800907757454,0.16560039280391842,0.1964672410348398,0.19735033793165316,0.6745515546296379,0.4775732891705849
87301.47130090055,87301.47130090055,87301.47130090055,87301.47130090055,0.12628784745418317,0.16591662112496663,0.19588242579856835,0.19080468154334618,0.6687258249411576,0.41621627491772306
87301.47630090055,87301.47630090055,87301.47630090055,87301.47630090055,0.22199623790460682,0.21073664838310574,0.2005934964382018,0.19386209425037873,0.7156559019768048,0.44487554205820273
87301.48130090056,87301.48130090056,87301.48130090056,87301.48130090056,0.12442012127366278,0.16651413078027472,0.2000173784204579,0.1941813746972481,0.7099168110094809,0.4478683809374663
87301.48630090056,87301.48630090056,87301.48630090056,87301.48630090056,0.4779648324382965,0.16679529391006082,0.2304362098477975,0.19449125402673925,1.0,0.4507730965699917
87301.49130090057,87301.49130090057,87301.49130090057,87301.49130090057,0.12252259965738724,0.1670649896001424,0.2299325216407077,0.19479169094465384,1.0,0.45358930187638413
87301.49630090057,87301.49630090057,87301.49630090057,87301.49630090057,0.12156294901061118,0.16732293039247173,0.22942676254769842,0.1950826322184974,1.0,0.4563164978712508
87301.50130090058,87301.50130090058,87301.50130090058,87301.50130090058,0.12059610431501344,0.16756907707462512,0.22891906442503354,0.1953640326852457,0.9978255380075458,0.45895426120998645
87301.50630090058,87301.50630090058,87301.50630090058,87301.50630090058,0.11962226795249041,0.16780358065163664,0.22840955877271824,0.1956358495546734,0.9927500166786796,0.4615021907898888
87301.51130090059,87301.51130090059,87301.51130090059,87301.51130090059,0.1186413994242907,0.16802618605173247,0.22789837202171556,0.1958980263077938,0.98765774881873,0.4639597568189755
87301.51630090059,87301.51630090059,87301.51630090059,87301.51630090059,0.5312022873533395,0.1682369441663063,0.26167742312370074,0.1961505312176991,1.0,0.4663266618987553
87301.5213009006,87301.5213009006,87301.5213009006,87301.5213009006,0.11665921253955808,0.16843604173177426,0.26123078508013914,0.1963933268386305,1.0,0.46860255502394793
87301.5263009006,87301.5263009006,87301.5263009006,87301.5263009006,0.11565808495542614,0.16862324002932566,0.2607832898022522,0.16992663658661994,1.0,0.2205117609639936
87301.5313009006,87301.5313009006,87301.5313009006,87301.5313009006,0.15517457728568546,0.1687985750040497,0.26164430476709793,0.17018491391126422,1.0,0.22293277492337274
87301.53630090061,87301.53630090061,87301.53630090061,87301.53630090061,0.11363621678292281,0.593098306838472,0.26119770169728457,0.22191905305399587,1.0,0.707873035217289
87301.54130090062,87301.54130090062,87301.54130090062,87301.54130090062,0.11261564669260739,0.16911347461107198,0.2541139021425032,0.22209983407205666,1.0,0.7095676221072482
87301.54630090062,87301.54630090062,87301.54630090062,87301.54630090062,0.1115888884601009,0.16925317341772603,0.2169631971081025,0.22227186722183834,0.8787252703335275,0.7111802091110474
87301.55130090062,87301.55130090062,87301.55130090062,87301.55130090062,0.11055593198455674,0.16938087215902026,0.21642586145032905,0.2224351144182761,0.873372515993323,0.712710439230744
87301.55630090063,87301.55630090063,87301.55630090063,87301.55630090063,0.10951693611737967,0.16949666509480218,0.2109730559996068,0.22022109153741098,0.8190535300477624,0.6919568546551657
87301.56130090063,87301.56130090063,87301.56130090063,87301.56130090063,0.10847192310226844,0.5230949941610328,0.210422176416954,0.2527175651411176,0.8135658557527164,0.9965690242814557
87301.56630090064,87301.56630090064,87301.56630090064,87301.56630090064,0.10742106414614816,0.1696921249079175,0.1752727840437737,0.25283806958195854,0.46341961129778453,0.9976985966658874
87301.57130090064,87301.57130090064,87301.57130090064,87301.57130090064,0.10636455918426288,0.16977210507102894,0.17461214398756453,0.25295074715607363,0.45683854064477836,0.9987548023557107
87301.57630090065,87301.57630090065,87301.57630090065,87301.57630090065,0.10530241841286633,0.16984011318702297,0.17395068661807314,0.2530555755166875,0.4502493281959405,0.9997374318789743
87301.58130090065,87301.58130090065,87301.58130090065,87301.58130090065,0.10423469899311776,0.169896034216785,0.17328858049807655,0.2531525300649122,0.4436536531160968,1.0
87301.58630090066,87301.58630090066,87301.58630090066,87301.58630090066,0.1031615299998055,0.1699399068292207,0.17262599173835633,0.2532415825237181,0.437053170144132,1.0
87301.59130090066,87301.59130090066,87301.59130090066,87301.59130090066,0.10208299546866831,0.16997166915374065,0.17196309282170824,0.2533227135273418,0.4304495974947602,1.0
87301.59630090067,87301.59630090067,87301.59630090067,87301.59630090067,0.10099935663848139,0.16999167107169783,0.11212880000162935,0.2533959172265092,0.0,1.0
87301.60130090067,87301.60130090067,87301.60130090067,87301.60130090067,0.09991064172512816,0.16999973406203897,0.11111330059236367,0.2534611734689258,0.0,1.0
87301.60630090068,87301.60630090068,87301.60630090068,87301.60630090068,0.09881689854783231,0.7463468710496519,0.11009275518838633,0.31189751102601165,0.0,1.0
87301.61130090068,87301.61130090068,87301.61130090068,87301.61130090068,0.22535794798094025,0.16997962677802053,0.11742915183258065,0.3119375971993171,0.0,1.0
87301.61630090069,87301.61630090069,87301.61630090069,87301.61630090069,0.09661483790611448,0.16995157134304054,0.11647288534804941,0.27771376538747594,0.0,1.0
87301.62130090069,87301.62130090069,87301.62130090069,87301.62130090069,0.09550674712787495,0.7054821573877886,0.11551357690974887,0.32625763160313004,0.0,1.0
87301.6263009007,87301.6263009007,87301.6263009007,87301.6263009007,0.09439413927792291,0.1698594694655182,0.11455139586393376,0.32627732428906203,0.0,1.0
87301.6313009007,87301.6313009007,87301.6313009007,87301.6313009007,0.09327709933966123,0.1697955033402969,0.11358651985223028,0.32629079348651086,0.0,1.0
87301.6363009007,87301.6363009007,87301.6363009007,87301.6363009007,0.09215571172162183,0.16971950371838537,0.1126191246471481,0.32629803296689763,0.0,1.0
87301.64130090071,87301.64130090071,87301.64130090071,87301.64130090071,0.09103011988151793,0.5929335702612224,0.11164939554381194,0.33367914481162275,0.0,1.0
87301.64630090071,87301.64630090071,87301.64630090071,87301.64630090071,0.4699656274072852,0.16953154684937088,0.15983933463145295,0.3336740433264205,0.30967685826992214,1.0
87301.65130090072,87301.65130090072,87301.65130090072,87301.65130090072,0.2033434579563299,0.16941961226749755,0.16560739505868705,0.3336628455864403,0.367136306642241,1.0
87301.65630090072,87301.65630090072,87301.65630090072,87301.65630090072,0.08762913602877355,0.1692958927665644,0.16496272588973238,0.3336455592820114,0.36071433251452906,1.0
87301.66130090073,87301.66130090073,87301.66130090073,87301.66130090073,0.08648779918556185,0.1691601321015396,0.16432028212102118,0.33362218858947673,0.35431452706414124,1.0
87301.66630090073,87301.66630090073,87301.66630090073,87301.66630090073,0.0853427896506715,0.16901237485284307,0.1636802470395347,0.3335927388324714,0.34793871613339833,1.0
87301.67130090074,87301.67130090074,87301.67130090074,87301.67130090074,0.08419425881370265,0.4069260836527355,0.1630428064167702,0.3461614792685305,0.3415887503145208,1.0
87301.67630090074,87301.67630090074,87301.67630090074,87301.67630090074,0.08304232697369089,0.16868131708703235,0.16240814050100766,0.34612141422578363,0.3352664251793255,1.0
87301.68130090075,87301.68130090075,87301.68130090075,87301.68130090075,0.08188709921168227,0.16849804222160128,0.16177643259744634,0.3460755169415568,0.3289735667516143,1.0
87301.68630090075,87301.68630090075,87301.68630090075,87301.68630090075,0.08072866449953517,0.1683028511126706,0.1611478676822477,0.2944894323856228,0.3227120177007446,1.0
87301.69130090075,87301.69130090075,87301.69130090075,87301.69130090075,0.07956714744068816,0.16809579180715253,0.15228322510420994,0.2944218417395119,0.2344054753235408,1.0
87301.69630090076,87301.69630090076,87301.69630090076,87301.69630090076,0.0784027049182182,0.16787704880547935,0.15162772000962998,0.2943474457599225,0.2278755574048636,1.0
87301.70130090076,87301.70130090076,87301.70130090076,87301.70130090076,0.07723538575576644,0.16764636730506208,0.15097582870922463,0.2393542003083901,0.22138163886976134,0.8713048616265737
87301.70630090077,87301.70630090077,87301.70630090077,87301.70630090077,0.07606536707281732,0.16740402367651577,0.15032774615172026,0.2392460552261368,0.2149256617308777,0.8702911421522292
87301.71130090077,87301.71130090077,87301.71130090077,87301.71130090077,0.07489271587246228,0.16714981997996123,0.14968366682741915,0.2391295867862538,0.2085095634341919,0.869199402026873
87301.71630090078,87301.71630090078,87301.71630090078,87301.71630090078,0.07371760376754356,0.16688403419110942,0.1490437879745284,0.23900482727218558,0.20213530879937275,0.8680299438658033
87301.72130090078,87301.72130090078,87301.72130090078,87301.72130090078,0.07254011904848304,0.16660655808901295,0.14840830457867402,0.19205475225278595,0.19580484020664493,0.42793406176537946
87301.72630090079,87301.72630090079,87301.72630090079,87301.72630090079,0.07136036010860003,0.16631731705954225,0.09240705057555448,0.19187902282147856,0.0,0.4262868269302854
87301.73130090079,87301.73130090079,87301.73130090079,87301.73130090079,0.0701784925890385,0.7169301903296691,0.07913653820518109,0.2591291718390746,0.0,1.0
87301.7363009008,87301.7363009008,87301.7363009008,87301.7363009008,0.12463275031833587,0.16570417976661678,0.08217965222470094,0.2589840269027915,0.0,1.0
87301.7413009008,87301.7413009008,87301.7413009008,87301.7413009008,0.0678087797454412,0.16538013358445805,0.08107628161142767,0.25883139508959013,0.0,1.0
87301.7463009008,87301.7463009008,87301.7463009008,87301.7463009008,0.0666211921629055,0.1650445699963766,0.07997218521883735,0.25867131467562593,0.0,1.0
87301.75130090081,87301.75130090081,87301.75130090081,87301.75130090081,0.06543196567306313,0.16469766783491194,0.0788675612393447,0.24136461899085024,0.0,0.8901499216841535
87301.75630090082,87301.75630090082,87301.75630090082,87301.75630090082,0.06424115997313898,0.16433902781747106,0.07776260911379487,0.24117732041738354,0.0,0.8883942411900986
87301.76130090082,87301.76130090082,87301.76130090082,87301.76130090082,0.6862716428532581,0.16396920839475096,0.18725244404048572,0.2409821452421887,0.5827568935233597,0.8865647278004822
87301.76630090082,87301.76630090082,87301.76630090082,87301.76630090082,0.06185543941168974,0.16358781568341874,0.1868028076105754,0.24077913024126693,0.5782777689447128,0.8846617262424791
87301.77130090083,87301.77130090083,87301.77130090083,87301.77130090083,0.36132413928048135,0.16319512658686422,0.20654128303653224,0.24056832281525095,0.7749057210949825,0.8826856808353634
87301.77630090083,87301.77630090083,87301.77630090083,87301.77630090083,0.059464975688873344,0.16279117926472725,0.20614587140681717,0.2403497648746832,0.7709667654598865,0.8806369844359547
87301.78130090084,87301.78130090084,87301.78130090084,87301.78130090084,0.05826825940663051,0.1623758674486055,0.2057558945101349,0.24012350591208154,0.76708194877948,0.8785161009722293
87301.78630090084,87301.78630090084,87301.78630090084,87301.78630090084,0.05707072207623861,0.16194939763782373,0.2053714526871117,0.2398895930574519,0.7632522706128188,0.8763234722266879
87301.79130090085,87301.79130090085,87301.79130090085,87301.79130090085,0.05587246821185683,0.16151157408643824,0.2049926448489013,0.23964807478374192,0.7594787162790412,0.8740595525701625
87301.79630090085,87301.79630090085,87301.79630090085,87301.79630090085,0.054673637636180675,0.16106279827868242,0.2046195666079964,0.2393990053344943,0.755762238237151,0.8717248504653073
87301.80130090086,87301.80130090086,87301.80130090086,87301.80130090086,0.05347433330887364,0.16060277424006636,0.20425231150356182,0.23914243218969705,0.7521037682923678,0.8693198109752498
87301.80630090086,87301.80630090086,87301.80630090086,87301.80630090086,0.052274684645018235,0.160131779752966,0.2038909711298964,0.2388784187236561,0.7485042188758201,0.8668450281516722
87301.81130090087,87301.81130090087,87301.81130090087,87301.81130090087,0.0510748068421173,0.15964969702575368,0.20353563336744102,0.1628852185714125,0.7449644654224514,0.15450762633034118
87301.81630090087,87301.81630090087,87301.81630090087,87301.81630090087,0.050200246941921496,0.2089596633143516,0.20152772872884064,0.16596531576003107,0.7249624050464091,0.18337953097841725
87301.82130090088,87301.82130090088,87301.82130090088,87301.82130090088,0.05132515068976404,0.15865285305334262,0.20122298694924934,0.16555435583268063,0.7219266714974608,0.17952731622347842
87301.82630090088,87301.82630090088,87301.82630090088,87301.82630090088,0.05252499059156496,0.1581380359036605,0.20096198941278073,0.16513249303153513,0.7193267031612741,0.17557290120883207
87301.83130090089,87301.83130090089,87301.83130090089,87301.83130090089,0.05372457673003898,0.15761238817593717,0.20074494499128467,0.16469976229362462,0.7171645807478942,0.1715166134236901
87301.83630090089,87301.83630090089,87301.83630090089,87301.83630090089,0.05492378923841989,0.15707597177780483,0.2005720293034516,0.1642562274388656,0.7154420537107473,0.16735905109675436
87301.8413009009,87301.8413009009,87301.8413009009,87301.8413009009,0.05612251697199229,0.1565290000649692,0.10483534475226976,0.16380193042950367,0.0,0.16310060756949468
87301.8463009009,87301.8463009009,87301.8463009009,87301.8463009009,0.057320620712970456,0.2947524784371347,0.10467412237611042,0.1748955418070442,0.0,0.2670887840071397
87301.8513009009,87301.8513009009,87301.8513009009,87301.8513009009,0.058518002879548614,0.15540290599076495,0.05487256450037967,0.17445139411744906,0.0,0.26292547715077214
87301.85630090091,87301.85630090091,87301.85630090091,87301.85630090091,0.05971452415120727,0.1548239870767841,0.05488949946170263,0.1739975074319127,0.0,0.2586708798756405
87301.86130090091,87301.86130090091,87301.86130090091,87301.86130090091,0.06091008126181376,0.15423466711463563,0.055068458737478766,0.1735339541146364,0.0,0.25432567050200283
87301.86630090092,87301.86630090092,87301.86630090092,87301.86630090092,0.06210455215213707,0.1536349599761724,0.05540784603919865,0.17306079589666565,0.0,0.2498904276781125
87301.87130090092,87301.87130090092,87301.87130090092,87301.87130090092,0.06329776650032978,0.15302451857190782,0.05590468729403532,0.17257808738772482,0.0,0.24536566329910103
87301.87630090093,87301.87630090093,87301.87630090093,87301.87630090093,0.06448972320595847,0.15240434163627703,0.05655476479147819,0.17208591573373866,0.0,0.24075219424465624
87301.88130090093,87301.88130090093,87301.88130090093,87301.88130090093,0.0656802068154453,0.15177372496764144,0.057352772368910974,0.17158434711528503,0.0,0.23605064087160982
87301.88630090094,87301.88630090094,87301.88630090094,87301.88630090094,0.06686908832957175,0.15113271812505735,0.05829251682982873,0.17107343496300675,0.0,0.23126150402273735
87301.89130090094,87301.89130090094,87301.89130090094,87301.89130090094,0.06805633156765856,0.15048188890254943,0.0593671356192661,0.1705532716499338,0.0,0.22638564957503884
87301.89630090095,87301.89630090095,87301.89630090095,87301.89630090095,0.06924172729397497,0.5629140258838041,0.06055248790915027,0.21485791164921686,0.0,0.6416840194619786
87301.90130090095,87301.90130090095,87301.90130090095,87301.90130090095,0.07042521815105238,0.14914978852541455,0.061740941101762536,0.21443205316711242,0.0,0.6376921501358005
87301.90630090096,87301.90630090096,87301.90630090096,87301.90630090096,0.07160667338630138,0.14846891553016453,0.06292840275211058,0.21399957174119663,0.0,0.6336381993263117
87301.91130090096,87301.91130090096,87301.91130090096,87301.91130090096,0.07278596733863017,0.1477781888169857,0.06411474521488197,0.21356055866401152,0.0,0.6295230227823431
87301.91630090096,87301.91630090096,87301.91630090096,87301.91630090096,0.0739629752663904,0.14707765127194344,0.06529984109353656,0.21311510535152783,0.0,0.6253474774097092
87301.92130090097,87301.92130090097,87301.92130090097,87301.92130090097,0.08304372862037915,0.14636743498694654,0.06706882281533724,0.21266330022878946,0.0,0.6211123920781761
87301.92630090097,87301.92630090097,87301.92630090097,87301.92630090097,0.28263263129705085,0.1456475360257581,0.09636103420740671,0.2027845299561743,0.0,0.5285117707714456
87301.93130090098,87301.93130090098,87301.93130090098,87301.93130090098,0.11033707776377666,0.14491808284194968,0.09915804830067217,0.20229870195100064,0.0,0.5239577651729956
87301.93630090098,87301.93630090098,87301.93630090098,87301.93630090098,0.07864586084807436,0.14417910608853565,0.09998013668933961,0.20180643334565262,0.0,0.5193433873256448
87301.94130090099,87301.94130090099,87301.94130090099,87301.94130090099,0.07980970826644176,0.1434307296343553,0.10080798432321665,0.20130782186408186,0.0,0.514669553264323
87301.94630090099,87301.94630090099,87301.94630090099,87301.94630090099,0.08097061794134393,0.14267314154576502,0.1016412996844614,0.20080297412672832,0.0,0.5099372624169664
87301.951300901,87301.951300901,87301.951300901,87301.951300901,0.16957857717519567,0.14190610205232182,0.10898553442360406,0.20029200389770807,0.0,0.5051475811741823
87301.956300901,87301.956300901,87301.956300901,87301.956300901,0.08328292397081337,0.1411299210766612,0.10977894505651019,0.19977499225367112,0.0,0.5003012695241027
87301.961300901,87301.961300901,87301.961300901,87301.961300901,0.0844341783361979,0.14034470366360716,0.1105774359180914,0.19925205970314683,0.0,0.49539945707743627
87301.96630090101,87301.96630090101,87301.96630090101,87301.96630090101,0.08558195369110265,0.13955035780853903,0.11138073923794896,0.19872332157609318,0.0,0.49044322490252173
87301.97130090102,87301.97130090102,87301.97130090102,87301.97130090102,0.17064257230941007,0.13874708624592438,0.11805134698220221,0.19818887640105778,0.0,0.4854334965763299
87301.97630090102,87301.97630090102,87301.97630090102,87301.97630090102,0.08786673894343129,0.13793494609105483,0.11882341819978522,0.14374785661059658,0.0,0.0
87301.98130090102,87301.98130090102,87301.98130090102,87301.98130090102,0.08900351626471231,0.137114027651083,0.11959985105518431,0.14299688319238296,0.0,0.0
87301.98630090103,87301.98630090103,87301.98630090103,87301.98630090103,0.09013639896663111,0.13628440979751974,0.12038039829639408,0.14223663362486197,0.0,0.0
87301.99130090103,87301.99130090103,87301.99130090103,87301.99130090103,0.09126521578156137,0.13544605407751792,0.12116481215533721,0.14146717808251333,0.0,0.0
87301.99630090104,87301.99630090104,87301.99630090104,87301.99630090104,0.09239001936688097,0.134599386459308,0.12195285493853926,0.14068860981917286,0.0,0.0
87302.00130090104,87302.00130090104,87302.00130090104,87302.00130090104,0.3149890245413516,0.1337440860532303,0.14367537322922277,0.139900994781841,0.14865699424450943,0.0
87302.00630090105,87302.00630090105,87302.00630090105,87302.00630090105,0.09462664390572059,0.1328804423523987,0.1273172227704948,0.139104416865662,0.0,0.0
87302.01130090105,87302.01130090105,87302.01130090105,87302.01130090105,0.1095110161856606,0.13200855728518934,0.1272726392828686,0.13829895813203566,0.0,0.0
87302.01630090106,87302.01630090106,87302.01630090106,87302.01630090106,0.09684544604349005,0.13112839895677592,0.12805444748994052,0.13748469721822296,0.0,0.0
87302.02130090106,87302.02130090106,87302.02130090106,87302.02130090106,0.09794773018010217,0.13023991947606567,0.12883886075858542,0.13666170228173646,0.0008607231952753467,0.0
87302.02630090107,87302.02630090107,87302.02630090107,87302.02630090107,0.09904546651098645,0.1293438310849639,0.12962566203584516,0.13583007197641042,0.00869856885246095,0.0
87302.03130090107,87302.03130090107,87302.03130090107,87302.03130090107,0.10013823357891076,0.12843969536096483,0.12502893868002096,0.13498989517613041,0.0,0.0
87302.03630090108,87302.03630090108,87302.03630090108,87302.03630090108,0.10122588065404749,0.12752755073591626,0.12585368528779217,0.1341412432774219,0.0,0.0
87302.04130090108,87302.04130090108,87302.04130090108,87302.04130090108,0.48346229983653477,0.12660778862266114,0.17321104657689648,0.13328420448933892,0.44288128666859655,0.0
87302.04630090109,87302.04630090109,87302.04630090109,87302.04630090109,0.10338589434652841,0.12568039046693827,0.17381697249773725,0.13241887253265802,0.44891731378814864,0.0
87302.05130090109,87302.05130090109,87302.05130090109,87302.05130090109,0.10445783575595526,0.12474525398358778,0.17051209466246672,0.1315453223452903,0.4159952493007613,0.0
87302.0563009011,87302.0563009011,87302.0563009011,87302.0563009011,0.10552448276847412,0.12380285139791691,0.17113679533305973,0.13066365360055512,0.4222183040663827,0.0
87302.0613009011,87302.0613009011,87302.0613009011,87302.0613009011,0.10658550632908458,0.1228529707514299,0.17176358893146154,0.12977394812704213,0.4284622078641692,0.0
87302.0663009011,87302.0663009011,87302.0663009011,87302.0663009011,0.10764084112531344,0.1218957666686171,0.17239229753337132,0.1288762922771182,0.43472518827299106,0.0
87302.07130090111,87302.07130090111,87302.07130090111,87302.07130090111,0.10869036904841356,0.12093132340299417,0.17302274501737774,0.12797078054979602,0.4410054908314884,0.0
87302.07630090111,87302.07630090111,87302.07630090111,87302.07630090111,0.10973418618458665,0.11995997800917263,0.17365475818282325,0.1270574998477864,0.4473013901738529,0.0
87302.08130090112,87302.08130090112,87302.08130090112,87302.08130090112,0.11077192499694284,0.11898151076274925,0.15723150416236825,0.126136545960691,0.2836985416256242,0.0
87302.08630090112,87302.08630090112,87302.08630090112,87302.08630090112,0.11180358399568083,0.3875932923884335,0.15793467282313128,0.15555107681542918,0.2907032677150699,0.08575958739290936
87302.09130090113,87302.09130090113,87302.09130090113,87302.09130090113,0.11282908315657103,0.11700400068911175,0.15808057941599135,0.15479863471534827,0.2921567393708175,0.07870642145807807
87302.09630090113,87302.09630090113,87302.09630090113,87302.09630090113,0.11384831952371964,0.1160051773959897,0.15878718321525143,0.1540422874419312,0.29919568513698336,0.07161664960294917
87302.10130090114,87302.10130090114,87302.10130090114,87302.10130090114,0.1148610676801342,0.11499964874696605,0.1594939692974564,0.15328219558062559,0.3062364467436028,0.06449177710720909
87302.10630090114,87302.10630090114,87302.10630090114,87302.10630090114,0.11586751729129549,0.11398780759257068,0.16020075237865558,0.15251850243337275,0.3132771784552271,0.05733314724015544
87302.11130090115,87302.11130090115,87302.11130090115,87302.11130090115,0.11686726584658155,0.11296945369962713,0.16090734698211193,0.1517513672667141,0.32031603261593633,0.05014225291844459
87302.11630090115,87302.11630090115,87302.11630090115,87302.11630090115,0.11786029694123479,0.11194477522532852,0.16161357455479197,0.1509809582324502,0.32735123054138104,0.04292067034648045
87302.12130090116,87302.12130090116,87302.12130090116,87302.12130090116,0.11884650468510512,0.11091387151545393,0.11132493431355353,0.15020742964631614,0.0,0.035669846033550244
87302.12630090116,87302.12630090116,87302.12630090116,87302.12630090116,0.11982604221537047,0.30914760335814223,0.1123503152092375,0.16597684907265858,0.0,0.18348764078212362
87302.13130090116,87302.13130090116,87302.13130090116,87302.13130090116,0.12079842613327434,0.10883412043143935,0.11336950470345254,0.1652756255146355,0.0,0.1769145820555881
87302.13630090117,87302.13630090117,87302.13630090117,87302.13630090117,0.1217637106874898,0.10778527882911038,0.11438239001375253,0.16457274959460916,0.0,0.17032603458461326
87302.14130090117,87302.14130090117,87302.14130090117,87302.14130090117,0.12272194069044974,0.10673075653033663,0.11538888131323952,0.16386840004123074,0.0,0.1637236737178195
87302.14630090118,87302.14630090118,87302.14630090118,87302.14630090118,0.12367285885096153,0.10567052785000257,0.11638887624837127,0.16316274908766965,0.0,0.1571091139171343
87302.15130090118,87302.15130090118,87302.15130090118,87302.15130090118,0.4291122547825669,0.10460470242345143,0.1559378199616832,0.1624559713096584,0.2708113013691986,0.15048399160296724
87302.15630090119,87302.15630090119,87302.15630090119,87302.15630090119,0.12555240719342517,0.10353340690764962,0.156681897974229,0.16174823257314447,0.2782235524518998,0.14384986155282287
87302.16130090119,87302.16130090119,87302.16130090119,87302.16130090119,0.1264809512751815,0.10245680252207791,0.15742349056622193,0.16103971721446514,0.2856110446237433,0.13720845168008386
87302.1663009012,87302.1663009012,87302.1663009012,87302.1663009012,0.1274016827425263,0.10137484151054825,0.15816242313761703,0.13109847122369064,0.2929720385787011,0.0
87302.1713009012,87302.1713009012,87302.1713009012,87302.1713009012,0.12831487738376288,0.10028787917255837,0.15889854059199607,0.13022976547402035,0.30030498929921523,0.0
87302.1763009012,87302.1763009012,87302.1763009012,87302.1763009012,0.1292201354214571,0.09919581934008793,0.15963167424892222,0.12935882228286794,0.3076082164483728,0.0
87302.18130090121,87302.18130090121,87302.18130090121,87302.18130090121,0.13011750565826447,0.19128650154328086,0.16036166998115783,0.13488534133184002,0.3148801846632618,0.0
87302.18630090122,87302.18630090122,87302.18630090122,87302.18630090122,0.1310068905988186,0.09699710918364815,0.16108836220523787,0.1340522528273806,0.32211924445794476,0.0
87302.19130090122,87302.19130090122,87302.19130090122,87302.19130090122,0.13188809898647483,0.09589061329531268,0.1618115956589764,0.13321810501450584,0.32932384916354257,0.0
87302.19630090123,87302.19630090123,87302.19630090123,87302.19630090123,0.13276116063983756,0.09477955262526568,0.162531219311596,0.1323830962949223,0.3364924942630224,0.0
87302.20130090123,87302.20130090123,87302.20130090123,87302.20130090123,0.1336260155778674,0.09366405053943282,0.16324708580438269,0.13154742833456434,0.3436237118191938,0.0
87302.20630090123,87302.20630090123,87302.20630090123,87302.20630090123,0.13448240376465473,0.09254412694206679,0.16395902935400042,0.10893455294131414,0.3507158503550728,0.0
87302.21130090124,87302.21130090124,87302.21130090124,87302.21130090124,0.1353303341780072,0.09141994557008652,0.1646669085798188,0.10792952847527876,0.3577675014850962,0.0
87302.21630090124,87302.21630090124,87302.21630090124,87302.21630090124,0.13616976476426954,0.09029163936128153,0.16537057932400648,0.10692153772644884,0.3647772291581731,0.0
87302.22130090125,87302.22130090125,87302.22130090125,87302.22130090125,0.1370006838842952,0.08915935209924061,0.16606989657092708,0.10591074643120296,0.37174358877805225,0.0
87302.22630090125,87302.22630090125,87302.22630090125,87302.22630090125,0.13782274724973592,0.630899426784424,0.16676471119446054,0.18813911169907124,0.37866509480124716,0.3912300249185113
87302.23130090126,87302.23130090126,87302.23130090126,87302.23130090126,0.13863618413446407,0.08688306886470636,0.13229941580160506,0.18757460674037482,0.03533359086758986,0.3859385252213348
87302.23630090126,87302.23630090126,87302.23630090126,87302.23630090126,0.13944058416466848,0.08573929914130998,0.13316588252609415,0.18701266510791428,0.04396503650693223,0.38067105337332424
87302.24130090127,87302.24130090127,87302.24130090127,87302.24130090127,0.1402361255508137,0.08459199072078333,0.13402405944859416,0.18645344577858025,0.05251390196955535,0.3754290995760369
87302.24630090127,87302.24630090127,87302.24630090127,87302.24630090127,0.5965410608013829,0.08344123971652617,0.1979629423392319,0.1858971121812812,0.6894512202909662,0.3702141957629063
87302.25130090128,87302.25130090128,87302.25130090128,87302.25130090128,0.14180002664447736,0.08228709960515038,0.19853711309728422,0.18534381719016413,0.6951709133221682,0.36502777493020705
87302.25630090128,87302.25630090128,87302.25630090128,87302.25630090128,0.14256835247994856,0.08112978963723078,0.19910732912216092,0.184793723060668,0.7008512106518865,0.359871358011622
87302.26130090129,87302.26130090129,87302.26130090129,87302.26130090129,0.1433273256542061,0.6171524041964682,0.1996734542263672,0.23593776796736823,0.7064907556268015,0.8392802524190874
87302.26630090129,87302.26630090129,87302.26630090129,87302.26630090129,0.1440768506371256,0.07880584426888514,0.20023535318909227,0.23551380102285488,0.7120882012233697,0.8353061137973721
87302.2713009013,87302.2713009013,87302.2713009013,87302.2713009013,0.1448170875679934,0.0776395130115145,0.2007929071309508,0.23509318522373207,0.7176423632057477,0.8313633878046268
87302.2763009013,87302.2763009013,87302.2763009013,87302.2763009013,0.14554787245760162,0.07647042602597323,0.20134598988247748,0.23467603391151123,0.7231519847168051,0.82745313687009
87302.2813009013,87302.2813009013,87302.2813009013,87302.2813009013,0.14626908819215587,0.07529868757763374,0.2018944737340252,0.2342624586156584,0.7286157935566456,0.8235764064374317
87302.28630090131,87302.28630090131,87302.28630090131,87302.28630090131,0.14698069162063634,0.07412442193080135,0.20243824107249117,0.2338525719820015,0.7340326181037008,0.8197342524147625
87302.29130090131,87302.29130090131,87302.29130090131,87302.29130090131,0.14768259857624058,0.07294774363665954,0.20297717139956353,0.23344648391215883,0.7394012579949337,0.8159277049867975
87302.29630090132,87302.29630090132,87302.29630090132,87302.29630090132,0.14837464576301598,0.07176874928602563,0.20351113980861538,0.23304430196460635,0.7447204689531789,0.8121577723743396
87302.30130090132,87302.30130090132,87302.30130090132,87302.30130090132,0.1490568224135597,0.07058757273033069,0.2040400226276838,0.23264613179246252,0.7499890190005717,0.8084254449379444
87302.30630090133,87302.30630090133,87302.30630090133,87302.30630090133,0.1497291959861502,0.0694043597986585,0.20456371498473372,0.17189576068254275,0.7552058634377089,0.2389697379875079
87302.31130090133,87302.31130090133,87302.31130090133,87302.31130090133,0.15039164649869446,0.06821921516140016,0.2050820981337275,0.17136868775974806,0.7603698193571116,0.2340291149364748
87302.31630090134,87302.31630090134,87302.31630090134,87302.31630090134,0.15104384292365441,0.06703221066936679,0.2055950567213179,0.17084673763382702,0.7654797376481239,0.2291365114425563
87302.32130090134,87302.32130090134,87302.32130090134,87302.32130090134,0.15168633158465067,0.06584356899578746,0.20610249420069737,0.17033006466232437,0.7705346565444168,0.2242933744069509
87302.32630090135,87302.32630090135,87302.32630090135,87302.32630090135,0.15231840046256617,0.06465330066085334,0.14726495419596003,0.16981881956346476,0.18441517411077013,0.21950111661696506
87302.33130090135,87302.33130090135,87302.33130090135,87302.33130090135,0.15294019243176166,0.15114623885483364,0.14796007118774077,0.17275143313540703,0.19133969222319555,0.246990554200831
87302.33630090136,87302.33630090136,87302.33630090136,87302.33630090136,0.15355170935158619,0.062268479242691424,0.14864540754973904,0.1722614733381365,0.1981667790414929,0.24239781842598024
87302.34130090136,87302.34130090136,87302.34130090136,87302.34130090136,0.15415296142190418,0.061074181026339214,0.14932090614805174,0.07811738312011825,0.20489586541722882,0.0
87302.34630090136,87302.34630090136,87302.34630090136,87302.34630090136,0.15474366774729212,0.05987876160318303,0.14998649773070746,0.07706016875174733,0.2115262614859114,0.0
87302.35130090137,87302.35130090137,87302.35130090137,87302.35130090137,0.15532407433377146,0.058682370432107035,0.15064211961639898,0.0760049506395925,0.21805734283776163,0.0
87302.35630090137,87302.35630090137,87302.35630090137,87302.35630090137,0.15589381840246716,0.05748509959318874,0.15128769585617133,0.07495200587971082,0.2244883528952243,0.0
87302.36130090138,87302.36130090138,87302.36130090138,87302.36130090138,0.1564529419981761,0.056287078966132116,0.15192316059007233,0.07390162120764875,0.2308186355839448,0.0
87302.36630090138,87302.36630090138,87302.36630090138,87302.36630090138,0.15700158020366453,0.05508843883884078,0.15254845952516152,0.07285409221563417,0.2370476500561896,0.0
87302.37130090139,87302.37130090139,87302.37130090139,87302.37130090139,0.15753937056688835,0.05388928216795775,0.15316352034108388,0.07180972317169346,0.24317467588127684,0.0
87302.3763009014,87302.3763009014,87302.3763009014,87302.3763009014,0.1580665269767497,0.05268974073449719,0.15376829461432567,0.07076883003683195,0.2491992306806978,0.0
87302.3813009014,87302.3813009014,87302.3813009014,87302.3813009014,0.15858255976643454,0.05148992451063599,0.15436270331827576,0.06973173765342766,0.25512052721833733,0.0
87302.3863009014,87302.3863009014,87302.3863009014,87302.3863009014,0.15908816461653105,0.1471100944097275,0.15494670833911206,0.07690280330425245,0.26093818581731454,0.0
87302.3913009014,87302.3913009014,87302.3913009014,87302.3913009014,0.15958264064087624,0.0509100243006345,0.15552023394468253,0.07606026712166086,0.26665145205979074,0.0
87302.39630090141,87302.39630090141,87302.39630090141,87302.39630090141,0.16006615236337313,0.052109922366298904,0.156083235267799,0.0753262713532328,0.27225987899415793,0.0
87302.40130090142,87302.40130090142,87302.40130090142,87302.40130090142,0.16053878785542983,0.05330961230735387,0.1566356402058396,0.07470412207583961,0.277762748358718,0.0
87302.40630090142,87302.40630090142,87302.40630090142,87302.40630090142,0.1610003039780882,0.054508970569518804,0.15717740440435723,0.07419672847747277,0.28315961830961456,0.0
87302.41130090143,87302.41130090143,87302.41130090143,87302.41130090143,0.16145068467417034,0.055707876543141924,0.15770847401244564,0.06535511373313714,0.28844995240250754,0.0
87302.41630090143,87302.41630090143,87302.41630090143,87302.41630090143,0.503416898345618,0.0569062103984216,0.1980848698317965,0.0650488314325537,0.6906658203376479,0.0
87302.42130090143,87302.42130090143,87302.42130090143,87302.42130090143,0.1623179215072891,0.058103852264200055,0.19849210038244902,0.06487854498587847,0.6947225120273482,0.0
87302.42630090144,87302.42630090144,87302.42630090144,87302.42630090144,0.3196916699520362,0.05930068924824666,0.21045233779834463,0.06484535220716516,0.8138663131350058,0.0
87302.43130090144,87302.43130090144,87302.43130090144,87302.43130090144,0.16314027466379113,0.060496587207340476,0.21082163149602778,0.06494946675596398,0.8175450908496185,0.0
87302.43630090145,87302.43630090145,87302.43630090145,87302.43630090145,0.16353454424135644,0.061691444293957856,0.21118310027238177,0.0651902165464558,0.8211459193699043,0.0
87302.44130090145,87302.44130090145,87302.44130090145,87302.44130090145,0.1639172171136883,0.2869132975717795,0.21153666355635747,0.09589943769352668,0.8246679960745846,0.0
87302.44630090146,87302.44630090146,87302.44630090146,87302.44630090146,0.16428893137846887,0.2432331343144297,0.2118822664305464,0.11271503225326536,0.8281107738951883,0.0
87302.45130090146,87302.45130090146,87302.45130090146,87302.45130090146,0.16464899437011848,0.06526851479350582,0.21221983815615597,0.11309033452964899,0.8314735481560189,0.0
87302.45630090147,87302.45630090147,87302.45630090147,87302.45630090147,0.16499772912268879,0.0664579957864651,0.21254931471566094,0.11354273332366212,0.8347556811363495,0.0
87302.46130090147,87302.46130090147,87302.46130090147,87302.46130090147,0.1653347511957659,0.06764580095242108,0.21287063716440033,0.1140712438320115,0.8379565856495953,0.0
87302.46630090148,87302.46630090148,87302.46630090148,87302.46630090148,0.20664866307008256,0.29669885160803716,0.21540908124079292,0.13100210097990908,0.8632436987430758,0.0
87302.47130090148,87302.47130090148,87302.47130090148,87302.47130090148,0.1659742759274626,0.07001601391216414,0.21571074346966515,0.13155208545673597,0.8662487548593264,0.0
87302.47630090149,87302.47630090149,87302.47630090149,87302.47630090149,0.16627675041731543,0.07119819326915464,0.21600416404676936,0.13211002936095353,0.8691717104549183,0.0
87302.48130090149,87302.48130090149,87302.48130090149,87302.48130090149,0.1665674972997097,0.07237823504857614,0.2162892754679622,0.13267574473797447,0.8720118930766256,0.0
87302.4863009015,87302.4863009015,87302.4863009015,87302.4863009015,0.16684663122580717,0.07355604708929314,0.2165660279495696,0.13324904222434214,0.8747688067964872,0.0
87302.4913009015,87302.4913009015,87302.4913009015,87302.4913009015,0.16711406163067022,0.07473149995500102,0.21683436901852662,0.1338297298892913,0.8774419288957475,0.0
87302.4963009015,87302.4963009015,87302.4963009015,87302.4963009015,0.16736985555455167,0.0759044958910266,0.18146252926069728,0.13441761448709302,0.5250797395534404,0.0
87302.50130090151,87302.50130090151,87302.50130090151,87302.50130090151,0.16761378179132982,0.07707487266792262,0.18176318119585158,0.13501249935173795,0.5280747314686552,0.0
87302.50630090151,87302.50630090151,87302.50630090151,87302.50630090151,0.16784591801023854,0.07824253391801379,0.16855547176133026,0.13561418668133576,0.39650404008229995,0.0
87302.51130090152,87302.51130090152,87302.51130090152,87302.51130090152,0.16806640850855548,0.07940740374669174,0.16885769182630922,0.13622247904941612,0.399514653171363,0.0
87302.51630090152,87302.51630090152,87302.51630090152,87302.51630090152,0.16827515885380817,0.08056935077584425,0.1691485484990906,0.13683717668255954,0.4024120680275802,0.0
87302.52130090153,87302.52130090153,87302.52130090153,87302.52130090153,0.16847186677661696,0.0817281855131949,0.1694280118476741,0.11830861727464927,0.405195986478585,0.0
87302.52630090153,87302.52630090153,87302.52630090153,87302.52630090153,0.16865681141938152,0.08288386886780234,0.1696960308616489,0.1035791487321123,0.4078659003760837,0.0
87302.53130090154,87302.53130090154,87302.53130090154,87302.53130090154,0.1688300111657025,0.08403629801199144,0.16995259772328483,0.10442113088155182,0.41042173184251785,0.0
87302.53630090154,87302.53630090154,87302.53630090154,87302.53630090154,0.16899106118737342,0.22729272676248033,0.17019766003677045,0.11771408147193047,0.41286295892870495,0.0
87302.54130090155,87302.54130090155,87302.54130090155,87302.54130090155,0.16914051385391854,0.08633076566276936,0.1704312231491187,0.11847539996290105,0.41518963489976246,0.0
87302.54630090155,87302.54630090155,87302.54630090155,87302.54630090155,0.16927784541754948,0.08747258906313617,0.16783551251639028,0.0949354950854099,0.3893320519267183,0.0
87302.55130090156,87302.55130090156,87302.55130090156,87302.55130090156,0.16940339480618896,0.08861071111706274,0.1680495087184961,0.09590150792424791,0.39146380901939987,0.0
87302.55630090156,87302.55630090156,87302.55630090156,87302.55630090156,0.2293500071433071,0.08974494481003434,0.17262742868236122,0.09686929336368594,0.4370674844896394,0.0
87302.56130090157,87302.56130090157,87302.56130090157,87302.56130090157,0.16961845766177924,0.09087519311452506,0.1728130051816506,0.09783859532520028,0.43891613420726155,0.0
87302.56630090157,87302.56630090157,87302.56630090157,87302.56630090157,0.16970783268225617,0.09200128192255272,0.17298704906020412,0.09880915809507601,0.4406498998951255,0.0
87302.57130090157,87302.57130090157,87302.57130090157,87302.57130090157,0.16978575539114993,0.09312335269336763,0.17314957396351777,0.09978074629739841,0.44226891748500263,0.0
87302.57630090158,87302.57630090158,87302.57630090158,87302.57630090158,0.16985141750312294,0.09424101196042806,0.1733005400488253,0.10075311196977593,0.4437727900768609,0.0
87302.58130090158,87302.58130090158,87302.58130090158,87302.58130090158,0.16990504836168827,0.09535422953097972,0.17343993566070434,0.10172601874587492,0.44516140156336226,0.0
87302.58630090159,87302.58630090159,87302.58630090159,87302.58630090159,0.16994681527841113,0.1494898461418686,0.17356775484346215,0.10659392754273855,0.4464346926159295,0.0
87302.5913009016,87302.5913009016,87302.5913009016,87302.5913009016,0.4532020332500213,0.09756701876568304,0.20297136707171773,0.10753198175566729,0.7393434372629217,0.0
87302.5963009016,87302.5963009016,87302.5963009016,87302.5963009016,0.16999425104492624,0.0986663300720199,0.20306087909732307,0.1084705196154289,0.7402351254965761,0.0
87302.6013009016,87302.6013009016,87302.6013009016,87302.6013009016,0.16999994810063873,0.09976076124525614,0.20314045977713677,0.10940931495627215,0.7410278810546835,0.0
87302.6063009016,87302.6063009016,87302.6063009016,87302.6063009016,0.16999369016823432,0.47239637197755,0.2032100940274506,0.15965098021274973,0.7417215536784934,0.12419084871517053
87302.61130090161,87302.61130090161,87302.61130090161,87302.61130090161,0.16997528309268203,0.10193456010528393,0.20326975630097918,0.16030118583594571,0.7423158888746719,0.1302856806652548
87302.61630090162,87302.61630090162,87302.61630090162,87302.61630090162,0.16994503253523932,0.10301375757102371,0.2033194586956571,0.15208825018232516,0.7428110071587128,0.05330009204541415
87302.62130090162,87302.62130090162,87302.62130090162,87302.62130090162,0.16990276205496632,0.10408764301918152,0.2033591760401807,0.15278142267339662,0.7432066577826841,0.05979768249185729
87302.62630090163,87302.62630090163,87302.62630090163,87302.62630090163,0.6650835516117504,0.10515613913256086,0.259248964963116,0.15347657996938233,1.0,0.06631387790259868
87302.63130090163,87302.63130090163,87302.63130090163,87302.63130090163,0.1697822517066897,0.10621907972714444,0.2592644542949683,0.1541735232536259,1.0,0.07284681463009929
87302.63630090163,87302.63630090163,87302.63630090163,87302.63630090163,0.16970388651429003,0.10727635209845332,0.25637946723257005,0.1548720570663847,1.0,0.07939466049351981
87302.64130090164,87302.64130090164,87302.64130090164,87302.64130090164,0.16961361078420836,0.10832792369550423,0.2563792668195645,0.15557198962380592,1.0,0.08595561776870651
87302.64630090164,87302.64630090164,87302.64630090164,87302.64630090164,0.16951150415400232,0.10937372598126244,0.2563711490259097,0.1562731341569514,1.0,0.09252793573980778
87302.65130090165,87302.65130090165,87302.65130090165,87302.65130090165,0.16939740200938594,0.11041356987992433,0.256355092342588,0.15697529203360316,1.0,0.09910975248815444
87302.65630090165,87302.65630090165,87302.65630090165,87302.65630090165,0.16927140080963393,0.11144739360387514,0.2563311136284309,0.15767827809941268,1.0,0.1056993324325722
87302.66130090166,87302.66130090166,87302.66130090166,87302.66130090166,0.16913326184320845,0.11247496345605265,0.25629921135105943,0.1583818997047416,1.0,0.11229486973329415
87302.66630090166,87302.66630090166,87302.66630090166,87302.66630090166,0.1689833745901974,0.11349637089993575,0.25625939405846876,0.15650308115442596,1.0,0.09468338973318466
87302.67130090167,87302.67130090167,87302.67130090167,87302.67130090167,0.16882174953880164,0.11451151625914144,0.23369461013077591,0.15721899431573264,1.0,0.10139414438272203
87302.67630090167,87302.67630090167,87302.67630090167,87302.67630090167,0.16864800278902353,0.11552008136175446,0.2336336389953305,0.15793488359256472,1.0,0.10810467514637827
87302.68130090168,87302.68130090168,87302.68130090168,87302.68130090168,0.16846254313408623,0.11652217871442225,0.2335640279463255,0.15865056884834872,1.0,0.114813293478093
87302.68630090168,87302.68630090168,87302.68630090168,87302.68630090168,0.1682650345643078,0.11751750970392773,0.23348577975544152,0.10993523114882667,1.0,0.0
87302.69130090169,87302.69130090169,87302.69130090169,87302.69130090169,0.16805580984761154,0.24595271935189017,0.23339892190319828,0.12335775370256095,1.0,0.0
87302.69630090169,87302.69630090169,87302.69630090169,87302.69630090169,0.16783482006891504,0.11948796527602215,0.2333034666310926,0.12428286938813443,1.0,0.0
87302.7013009017,87302.7013009017,87302.7013009017,87302.7013009017,0.16760202912192612,0.12046282086251381,0.2331994334637798,0.1252040234363584,1.0,0.0
87302.7063009017,87302.7063009017,87302.7063009017,87302.7063009017,0.16735739674453096,0.41299488678991086,0.1687794381555875,0.160141289700646,0.3987351168246996,0.12878686238477077
87302.7113009017,87302.7113009017,87302.7113009017,87302.7113009017,0.16710113445432298,0.122391262655618,0.16861212071778464,0.1608611301224084,0.39706835764273457,0.13553442999262155
87302.71630090171,87302.71630090171,87302.71630090171,87302.71630090171,0.1668330673984976,0.12334464629057357,0.16843296502739544,0.16157941874607862,0.39528366983088,0.14226745151188905
87302.72130090171,87302.72130090171,87302.72130090171,87302.72130090171,0.16655342019558927,0.12429076034088199,0.16824199166347947,0.16229598559635292,0.3933812583907004,0.14898433364519947
87302.72630090172,87302.72630090172,87302.72630090172,87302.72630090172,0.16626214590733093,0.12522946445470687,0.168039213292513,0.16301065875496723,0.3913612495013071,0.15568346488245313
87302.73130090172,87302.73130090172,87302.73130090172,87302.73130090172,0.1659590623348962,0.12616052695279165,0.16782464170731443,0.16372326499902037,0.38922376063873,0.1623632214842744
87302.73630090173,87302.73630090173,87302.73630090173,87302.73630090173,0.16564447193676207,0.2958888455531023,0.16759830133726153,0.1774849654570567,0.38696903516008896,0.2913612624837571
87302.74130090173,87302.74130090173,87302.74130090173,87302.74130090173,0.1653183987761133,0.1279998812757322,0.167360233196678,0.17814108867952863,0.38459748163607144,0.2975115642296232
87302.74630090174,87302.74630090174,87302.74630090174,87302.74630090174,0.16498075433061868,0.1289079058089201,0.16711044830103233,0.17879523581240714,0.382109209799013,0.30364334270598725
87302.75130090174,87302.75130090174,87302.75130090174,87302.75130090174,0.16463154152947998,0.12980799129520615,0.166848957190887,0.17944724308894336,0.37950432465039796,0.3097550628126013
87302.75630090175,87302.75630090175,87302.75630090175,87302.75630090175,0.16427087442242083,0.1307001012840194,0.1665758017371077,0.18009695932215647,0.37678324329349294,0.3158453073681795
87302.76130090175,87302.76130090175,87302.76130090175,87302.76130090175,0.44423907156179654,0.13158423601400318,0.19572440571065838,0.1807442303969232,0.6671516827840849,0.32191263174390944
87302.76630090176,87302.76630090176,87302.76630090176,87302.76630090176,0.16351541876515965,0.13246010988699602,0.1954726416550511,0.18138890277051803,0.6646436952313073,0.327955596676463
87302.77130090176,87302.77130090176,87302.77130090176,87302.77130090176,0.1631206250059757,0.13332777551482164,0.1952111743165059,0.1738739666288164,0.6620390468872555,0.2575128455446711
87302.77630090177,87302.77630090177,87302.77630090177,87302.77630090177,0.162714538411426,0.13418712277100173,0.1949400445379531,0.17454285118767687,0.6593381446152551,0.2637827682196277
87302.78130090177,87302.78130090177,87302.78130090177,87302.78130090177,0.16229706570072075,0.13503796504446477,0.19465929094199166,0.17520831729771924,0.6565413731604482,0.27002064738352727
87302.78630090177,87302.78630090177,87302.78630090177,87302.78630090177,0.16186848477634666,0.13588039504004892,0.19436896950762667,0.1455734300203854,0.6536492901665688,0.0
87302.79130090178,87302.79130090178,87302.79130090178,87302.79130090178,0.16142875327125877,0.13671426579650664,0.19406912334367143,0.14636793231106032,0.6506623250688947,0.0
87302.79630090178,87302.79630090178,87302.79630090178,87302.79630090178,0.16097780714150597,0.13753941003024353,0.19375980236180873,0.14715645018295215,0.6475809750705664,0.007070882184298752
87302.80130090179,87302.80130090179,87302.80130090179,87302.80130090179,0.16051565685694627,0.1383557152170784,0.1934410456860764,0.14793884803236218,0.6444056299118894,0.014404844303577725
87302.8063009018,87302.8063009018,87302.8063009018,87302.8063009018,0.16004264194827586,0.13916333400220773,0.19311291330754474,0.14871500825347012,0.6411368872034211,0.02168033677123864
87302.8113009018,87302.8113009018,87302.8113009018,87302.8113009018,0.1595584361534013,0.13996188465237588,0.19277545888200437,0.14948480471934972,0.637775281445826,0.02889617731141004
87302.8163009018,87302.8163009018,87302.8163009018,87302.8163009018,0.15906346376961142,0.14075159448666197,0.19242874252204625,0.13458085671342337,0.6343214114602085,0.0
87302.8213009018,87302.8213009018,87302.8213009018,87302.8213009018,0.15855745086666578,0.1415321177392725,0.19207280966948648,0.13542513675566883,0.6307757299224237,0.0
87302.82630090181,87302.82630090181,87302.82630090181,87302.82630090181,0.15804065401648312,0.142303547929373,0.1917077245528578,0.13626090190740509,0.6271388766551832,0.0
87302.83130090182,87302.83130090182,87302.83130090182,87302.83130090182,0.15751312921777708,0.14306581395231513,0.1913335549278657,0.13708807541496218,0.6234115266176882,0.0
87302.83630090182,87302.83630090182,87302.83630090182,87302.83630090182,0.15697469394372715,0.14381863588299063,0.19095035385810588,0.13790656490157682,0.6195942084113601,0.0
87302.84130090183,87302.84130090183,87302.84130090183,87302.84130090183,0.1564255882083245,0.1445620985689843,0.16017826283566206,0.1387162840707889,0.3130531453073682,0.0
87302.84630090183,87302.84630090183,87302.84630090183,87302.84630090183,0.15586590881507056,0.1452961662764739,0.1597009125517152,0.13951716173241255,0.308297944778183,0.0
87302.85130090184,87302.85130090184,87302.85130090184,87302.85130090184,0.1552955847669497,0.14602065172928386,0.15921261018355654,0.14030911180621983,0.30343364332585787,0.0
87302.85630090184,87302.85630090184,87302.85630090184,87302.85630090184,0.37342288737326174,0.1467355476858215,0.18002553910263647,0.1410920547751323,0.51076493428393,0.0
87302.86130090184,87302.86130090184,87302.86130090184,87302.86130090184,0.15412347717887168,0.14744080998777134,0.17957603270442307,0.14186591979251104,0.5062871050366461,0.0
87302.86630090185,87302.86630090185,87302.86630090185,87302.86630090185,0.15352179215048914,0.14813632425912984,0.17911734258773424,0.14263062346187466,0.5017177907218491,0.0
87302.87130090185,87302.87130090185,87302.87130090185,87302.87130090185,0.4696135679087521,0.14882196549454668,0.2103280205168143,0.14338608347032655,0.8126279068266821,0.0
87302.87630090186,87302.87630090186,87302.87630090186,87302.87630090186,0.1522872053590758,0.14949763020824988,0.20992313443799088,0.1441322212097642,0.808594569964783,0.0
87302.88130090186,87302.88130090186,87302.88130090186,87302.88130090186,0.15165479522335695,0.15016364259051532,0.2095109571678702,0.14486898621612157,0.8044886007448836,0.0
87302.88630090187,87302.88630090187,87302.88630090187,87302.88630090187,0.5637858334204894,0.15081945877487138,0.24931885677509005,0.14559628392646315,1.0,0.0
87302.89130090187,87302.89130090187,87302.89130090187,87302.89130090187,0.15035913057585937,0.1514651490171366,0.24896124837738492,0.1463140476215593,1.0,0.0
87302.89630090188,87302.89630090188,87302.89630090188,87302.89630090188,0.36590223007567757,0.15210080536255957,0.26223683326884867,0.1470222032857334,1.0,0.005812492147087573
87302.90130090188,87302.90130090188,87302.90130090188,87302.90130090188,0.1490235453799077,0.1527262971033728,0.26188714881345426,0.14772068948250966,1.0,0.012359891672609126
87302.90630090189,87302.90630090189,87302.90630090189,87302.90630090189,0.1483407611391118,0.15334138666254876,0.26153228678688245,0.14840942412994587,1.0,0.01881588310758171
87302.91130090189,87302.91130090189,87302.91130090189,87302.91130090189,0.14764807231422716,0.15394606631823013,0.2611723281539592,0.14908832930144403,1.0,0.02517973599151351
87302.9163009019,87302.9163009019,87302.9163009019,87302.9163009019,0.1469457545323211,0.1545404950834232,0.2608073714604919,0.14975735448044744,1.0,0.03145097679739595
87302.9213009019,87302.9213009019,87302.9213009019,87302.9213009019,0.20081591554644615,0.15512445721846796,0.2627006170791826,0.1504164303733916,1.0,0.03762895598819681
87302.9263009019,87302.9263009019,87302.9263009019,87302.9263009019,0.14551212216726253,0.15569795228208583,0.26232916150175306,0.15106549010912615,1.0,0.043713046733865044
87302.93130090191,87302.93130090191,87302.93130090191,87302.93130090191,0.14478084030077268,0.1562607415199413,0.2619530249703053,0.15170446298632023,1.0,0.04970258630139036
87302.93630090191,87302.93630090191,87302.93630090191,87302.93630090191,0.144040152538845,0.15681298491982185,0.24738799351761245,0.15233328935353624,1.0,0.05559701553613777
87302.94130090192,87302.94130090192,87302.94130090192,87302.94130090192,0.14328996256498613,0.1573544344924593,0.24698065163855615,0.15295189650852706,1.0,0.06139565294910946
87302.94630090192,87302.94630090192,87302.94630090192,87302.94630090192,0.14253055822826688,0.5411877899535698,0.24656858780883067,0.20081838433001875,1.0,0.5100817130276981
87302.95130090193,87302.95130090193,87302.95130090193,87302.95130090193,0.14176182259834544,0.15840524469289463,0.2197010194399245,0.20127602625052954,0.9059985215264496,0.5143715107460213
87302.95630090193,87302.95630090193,87302.95630090193,87302.95630090193,0.14098409249581043,0.15891458520687712,0.21922900818947627,0.20172644283857114,0.9012965066258724,0.5185935803709351
87302.96130090194,87302.96130090194,87302.96130090194,87302.96130090194,0.14019698517502965,0.15941270049752723,0.21875182088467748,0.20216951633603097,0.8965429296393082,0.5227468180733101
87302.96630090194,87302.96630090194,87302.96630090194,87302.96630090194,0.13940109175828788,0.15990015626391246,0.1708829907904015,0.2026051832068953,0.4196899898783632,0.5268306282856632
87302.97130090195,87302.97130090195,87302.97130090195,87302.97130090195,0.13859619001972737,0.16037654033078477,0.17026027509448866,0.20303335740686831,0.4134867087527016,0.530844204454645
87302.97630090195,87302.97630090195,87302.97630090195,87302.97630090195,0.13778230822241055,0.16084173503830515,0.14767288657890884,0.20345394384489626,0.18847885721415328,0.5347866552253179
87302.98130090196,87302.98130090196,87302.98130090196,87302.98130090196,0.1369598272203611,0.1612960715567716,0.14694099157557053,0.203866870949128,0.18118796910907814,0.5386573097046761
87302.98630090196,87302.98630090196,87302.98630090196,87302.98630090196,0.1361285660978674,0.1617391719001828,0.14620030890355545,0.20427206061903974,0.1738095412493462,0.5424554358018997
87302.99130090197,87302.99130090197,87302.99130090197,87302.99130090197,0.13528870189722506,0.1621711107618606,0.14545092917777494,0.20466943986335273,0.16634447630976207,0.5461803493186952
87302.99630090197,87302.99630090197,87302.99630090197,87302.99630090197,0.13444028986255682,0.16259180746873572,0.14469292949685394,0.20505892522927677,0.15879354232050094,0.5498312679937073
87303.00130090197,87303.00130090197,87303.00130090197,87303.00130090197,0.14019693027725882,0.1630013988843019,0.14015724402981147,0.2054404512063491,0.11361059248591066,0.5534075777515617
87303.00630090198,87303.00630090198,87303.00630090198,87303.00630090198,0.13271834271132393,0.1633995493432823,0.13936131763758328,0.20581393664099953,0.10568184554933735,0.5569085178830998
87303.01130090198,87303.01130090198,87303.01130090198,87303.01130090198,0.13184480504097265,0.16378627565886197,0.13855657476213198,0.2061793134938137,0.09766527181743594,0.5603334506073154
87303.01630090199,87303.01630090199,87303.01630090199,87303.01630090199,0.13096320718621046,0.18868315687884246,0.13774310024691636,0.20784152172610784,0.0895617164717713,0.5759144906359803
87303.021300902,87303.021300902,87303.021300902,87303.021300902,0.13007342308532338,0.5839165925327101,0.13692097827564884,0.25091927728795516,0.08137201812174086,0.9797124148153156
87303.026300902,87303.026300902,87303.026300902,87303.026300902,0.12917563113938446,0.1648782966323173,0.13609028536296414,0.21530042500842006,0.07309693898000834,0.6458320065968082
87303.031300902,87303.031300902,87303.031300902,87303.031300902,0.12827002821880593,0.1652194872400961,0.13525111785943228,0.21562027176824153,0.06473743885805175,0.6488301539233552
87303.03630090201,87303.03630090201,87303.03630090201,87303.03630090201,0.12735647612895187,0.16554897653935216,0.13440354250138223,0.21593202689161212,0.05629418256039195,0.6517524526835257
87303.04130090201,87303.04130090201,87303.04130090201,87303.04130090201,0.12643522472328686,0.1658669639356319,0.1335476663942023,0.2162356475649928,0.0477682370343343,0.6545985015560821
87303.04630090202,87303.04630090202,87303.04630090202,87303.04630090202,0.12550630456204837,0.1661733250427,0.13268356041980423,0.21653105990078994,0.03916030838127984,0.6573676079409444
87303.05130090202,87303.05130090202,87303.05130090202,87303.05130090202,0.12456992238836183,0.1664682054433641,0.13181132277015115,0.21681821694152192,0.030471374756035806,0.6600593316728037
87303.05630090203,87303.05630090203,87303.05630090203,87303.05630090203,0.12362607210099295,0.166751423686095,0.13093105013009138,0.21709706940882761,0.02170239930004647,0.6626732108311238
87303.06130090203,87303.06130090203,87303.06130090203,87303.06130090203,0.12267481941974864,0.16702290457105212,0.1300428187314982,0.21736754999972466,0.012854141409202819,0.6652086145379911
87303.06630090204,87303.06630090204,87303.06630090204,87303.06630090204,0.12171624835388524,0.16728259986395,0.1291467222444147,0.2176296075296871,0.003927534192488794,0.6676650630050537
87303.07130090204,87303.07130090204,87303.07130090204,87303.07130090204,0.12075055304863833,0.16753064267217788,0.12824285483608136,0.21788319466012454,0.0,0.6700421124946033
87303.07630090204,87303.07630090204,87303.07630090204,87303.07630090204,0.11977783843523919,0.16776702649823833,0.12733131392798222,0.2181282683951317,0.0,0.6723393599759556
87303.08130090205,87303.08130090205,87303.08130090205,87303.08130090205,0.11879804768646267,0.16799146766154296,0.12596378769833272,0.21836476660878948,0.0,0.6745562230994308
87303.08630090205,87303.08630090205,87303.08630090205,87303.08630090205,0.11781145824546471,0.47954985816596185,0.12503384396405756,0.24573860534101882,0.0,0.9311503541707313
87303.09130090206,87303.09130090206,87303.09130090206,87303.09130090206,0.11681808731608377,0.16840520973962225,0.12409643606152354,0.2459336502306605,0.0,0.932978646302758
87303.09630090206,87303.09630090206,87303.09630090206,87303.09630090206,0.3499902383710264,0.1685941748223556,0.14826930995853002,0.24501995162979773,0.1944202232628825,0.9244139104305689
87303.10130090207,87303.10130090207,87303.10130090207,87303.10130090207,0.11481127211307669,0.16877136390500527,0.1474794784919981,0.20125879070646197,0.18655219189487798,0.5142099499398508
87303.10630090207,87303.10630090207,87303.10630090207,87303.10630090207,0.11379816590221127,0.16893676795196294,0.14668563837821613,0.20146904108505734,0.17864422775179015,0.5161807737519885
87303.11130090208,87303.11130090208,87303.11130090208,87303.11130090208,0.11277865557137086,0.16909023494233344,0.14588793839708555,0.20166965885463126,0.17069781292819386,0.5180613043843499
87303.11630090208,87303.11630090208,87303.11630090208,87303.11630090208,0.2206320114992515,0.16923170299161897,0.15268256727649257,0.20186061504552313,0.23838358568154316,0.5198512702840503
87303.12130090209,87303.12130090209,87303.12130090209,87303.12130090209,0.11072076175066442,0.16936115159336462,0.15191788131957798,0.20204187011123406,0.23076604529397815,0.521550300754103
87303.12630090209,87303.12630090209,87303.12630090209,87303.12630090209,0.10968275569626518,0.1694789083039673,0.1511504128853059,0.2022134087500249,0.22312078681710273,0.5231582523606076
87303.1313009021,87303.1313009021,87303.1313009021,87303.1313009021,0.10863880819394202,0.16958477487382229,0.1503803266156208,0.20237519847092572,0.2154494503577481,0.5246748205429845
87303.1363009021,87303.1363009021,87303.1363009021,87303.1363009021,0.1075888901461113,0.16967846700829395,0.14960778842278,0.2025272019018819,0.20775368867716754,0.5260996549868339
87303.1413009021,87303.1413009021,87303.1413009021,87303.1413009021,0.10653317459741497,0.1697601071381189,0.14883297090997263,0.20266939265209194,0.20003522118939338,0.52743250831272
87303.14630090211,87303.14630090211,87303.14630090211,87303.14630090211,0.10547189501617843,0.1698299576704326,0.14805605509467928,0.20280176123997662,0.1922958511287554,0.528673291643171
87303.15130090211,87303.15130090211,87303.15130090211,87303.15130090211,0.10440508248109949,0.1698878583811881,0.14727721573395028,0.2029242835985533,0.18453731936531523,0.5298217793815303
87303.15630090212,87303.15630090212,87303.15630090212,87303.15630090212,0.16081880311819408,0.1699336894371623,0.1497007868311116,0.2030369303860511,0.2086801070650553,0.5308776964868628
87303.16130090212,87303.16130090212,87303.16130090212,87303.16130090212,0.10225516718640185,0.16996752292763975,0.1489354626020669,0.20313969135371493,0.2010562084284791,0.5318409468904205
87303.16630090213,87303.16630090213,87303.16630090213,87303.16630090213,0.10117236587238125,0.1699894743680083,0.14816896188350284,0.16940707301154792,0.1934205900050439,0.21564152827993316
87303.17130090213,87303.17130090213,87303.17130090213,87303.17130090213,0.10008438900739586,0.16999929131305536,0.14740146701461163,0.16950655344280455,0.18577506819551926,0.2165740279218938
87303.17630090214,87303.17630090214,87303.17630090214,87303.17630090214,0.3688620206077634,0.16999719840693234,0.1502500214103122,0.16959411071789696,0.2141513943974252,0.21739476348408793
87303.18130090214,87303.18130090214,87303.18130090214,87303.18130090214,0.09789355281391712,0.16998300480231082,0.14949971204384824,0.16966972455523247,0.2066770686947943,0.2181035448529658
87303.18630090215,87303.18630090215,87303.18630090215,87303.18630090215,0.09679089541576266,0.16995686270809507,0.1487491758993505,0.16973338477335162,0.19920048390682826,0.21870027659058874
87303.19130090215,87303.19130090215,87303.19130090215,87303.19130090215,0.09568356831116327,0.16991874912715732,0.1479986058599974,0.16978508920433474,0.19172356146988734,0.2191849383755298
87303.19630090216,87303.19630090216,87303.19630090216,87303.19630090216,0.5867925545879583,0.16986853773538232,0.20095155122032868,0.16982483164147696,0.7192227214523678,0.21955747202800424
87303.20130090216,87303.20130090216,87303.20130090216,87303.20130090216,0.09345528717241043,0.5828248076966998,0.20040259769766153,0.21972271330454216,0.7137542339092126,0.6872852069970218
87303.20630090217,87303.20630090217,87303.20630090217,87303.20630090217,0.2155078450276884,0.16973238014299893,0.20569889143400905,0.21973494151756784,0.7665141035997984,0.687399830588056
87303.21130090217,87303.21130090217,87303.21130090217,87303.21130090217,0.09120962515166381,0.1696462567291918,0.20516903824489924,0.21973790764978474,0.761235887057403,0.6874276342193363
87303.21630090218,87303.21630090218,87303.21630090218,87303.21630090218,0.09008056222149885,0.16954821727217873,0.2046412236202453,0.21973162391124634,0.755977977998014,0.6873687323442318
87303.22130090218,87303.22130090218,87303.22130090218,87303.22130090218,0.36266938696980966,0.16943825389077846,0.2222369587613515,0.2197160970224964,0.9312606831062546,0.687223187959098
87303.22630090218,87303.22630090218,87303.22630090218,87303.22630090218,0.08781054542344811,0.169316346463668,0.22175642954055103,0.2196913208501659,0.9264738150936365,0.6869909435715789
87303.23130090219,87303.23130090219,87303.23130090219,87303.23130090219,0.08666979195628793,0.1691824559977498,0.22127836771121503,0.21965729590408734,0.9217115263922542,0.6866720039606904
87303.2363009022,87303.2363009022,87303.2363009022,87303.2363009022,0.12180343745613134,0.41702308098725055,0.2197156182163088,0.23940290745580783,0.9061439495517858,0.8717614277768629
87303.2413009022,87303.2413009022,87303.2413009022,87303.2413009022,0.08437740646639745,0.1688789577631863,0.21924054622099343,0.23935475463965195,0.9014114445559863,0.8713100577610965
87303.2463009022,87303.2463009022,87303.2463009022,87303.2463009022,0.08322601801777395,0.16870943187029952,0.2187683415418226,0.23929814407238612,0.8967075027845243,0.8707794073302555
87303.25130090221,87303.25130090221,87303.25130090221,87303.25130090221,0.08207127988741887,0.16852793921817932,0.2182991362549804,0.23923308918213015,0.8920334399352459,0.8701696023554963
87303.25630090221,87303.25630090221,87303.25630090221,87303.25630090221,0.08091330100289525,0.1683344613692629,0.1988969548326267,0.23915959352128688,0.6987555338154787,0.8694806761359747
87303.26130090222,87303.26130090222,87303.26130090222,87303.26130090222,0.07975232348792223,0.4077268840926871,0.19838996693480088,0.25647904018440076,0.693705093497106,1.0
87303.26630090222,87303.26630090222,87303.26630090222,87303.26630090222,0.07858834596254209,0.16791264670871925,0.19788647540509263,0.25639487253620785,0.6886894828040253,1.0
87303.27130090223,87303.27130090223,87303.27130090223,87303.27130090223,0.07742147118829311,0.2631723629886771,0.19738662146410277,0.2612710041726118,0.6837101085276397,1.0
87303.27630090223,87303.27630090223,87303.27630090223,87303.27630090223,0.07625189430114968,0.1674434367493234,0.13343362174524726,0.2611731449560696,0.04663216318395798,1.0
87303.28130090224,87303.28130090224,87303.28130090224,87303.28130090224,0.07507965258954634,0.16719111317066307,0.13270634077855625,0.2207445778207894,0.039387238536420864,0.6968638576270609
87303.28630090224,87303.28630090224,87303.28630090224,87303.28630090224,0.07390491512965672,0.45471011107510156,0.12267688029361737,0.24464296720442688,0.0,0.9208801718124058
87303.29130090224,87303.29130090224,87303.29130090224,87303.29130090224,0.07272778278241357,0.16665141606425868,0.12190262661375763,0.24451428185478455,0.0,0.9196739140494343
87303.29630090225,87303.29630090225,87303.29630090225,87303.29630090225,0.07154839757298884,0.166364146412265,0.12113233246909465,0.2443775480336067,0.0,0.9183922123350204
87303.30130090225,87303.30130090225,87303.30130090225,87303.30130090225,0.07036684402950413,0.16606516952862485,0.08223103124887965,0.24423279038343967,0.0,0.9170352976609817
87303.30630090226,87303.30630090226,87303.30630090226,87303.30630090226,0.06918327647226542,0.16575472080965165,0.08111208058141756,0.24408004535738112,0.0,0.9156035117276916
87303.31130090226,87303.31130090226,87303.31130090226,87303.31130090226,0.06799775229078422,0.1654324655888604,0.0799917008737448,0.2439193378352717,0.0,0.9140970877512934
87303.31630090227,87303.31630090227,87303.31630090227,87303.31630090227,0.06681044880705997,0.16509879280233256,0.07583135648944378,0.2243456673345631,0.0,0.7306193876327526
87303.32130090227,87303.32130090227,87303.32130090227,87303.32130090227,0.06562146915098749,0.1647536474910822,0.07466296962182963,0.2241538697545565,0.0,0.7288215348045548
87303.32630090228,87303.32630090228,87303.32630090228,87303.32630090228,0.06443091976514173,0.16439697366364556,0.07349222657477598,0.22395351216307832,0.0,0.7269434430034091
87303.33130090228,87303.33130090228,87303.33130090228,87303.33130090228,0.06323891660582011,0.1640287690365315,0.07231925031665591,0.223744634088921,0.0,0.7249854827603271
87303.33630090229,87303.33630090229,87303.33630090229,87303.33630090229,0.06204561673208382,0.16364939913555948,0.0711441668982293,0.22352729356421894,0.0,0.7229481980510822
87303.34130090229,87303.34130090229,87303.34130090229,87303.34130090229,0.06085109686483204,0.1632585342575314,0.06996709165128126,0.20307685621555613,0.0,0.5312519492041874
87303.3463009023,87303.3463009023,87303.3463009023,87303.3463009023,0.05965548264608277,0.16285623764752646,0.0687881490133064,0.20281932379926826,0.0,0.5288379177916959
87303.3513009023,87303.3513009023,87303.3513009023,87303.3513009023,0.05845890956288802,0.16244272056277145,0.067607465851206,0.19610245959145142,0.0,0.465876052932769
87303.3563009023,87303.3563009023,87303.3563009023,87303.3563009023,0.05726150126331296,0.16201811374572056,0.0664251642656825,0.1958174148276217,0.0,0.4632041290492839
87303.36130090231,87303.36130090231,87303.36130090231,87303.36130090231,0.05606335084080046,0.16158206081775683,0.06524137119099456,0.19552289719672764,0.0,0.4604434093590834
87303.36630090231,87303.36630090231,87303.36630090231,87303.36630090231,0.05486460217191495,0.16113497810937358,0.06405621180321766,0.1641018070641688,0.0,0.16591156094922255
87303.37130090232,87303.37130090232,87303.37130090232,87303.37130090232,0.05366536858301685,0.16067683057982265,0.06286981277109668,0.16372896787003005,0.0,0.16241667848187177
87303.37630090232,87303.37630090232,87303.37630090232,87303.37630090232,0.052465764196032307,0.1602074868524007,0.06168229939748478,0.1633447673535653,0.0,0.15881529839617153
87303.38130090233,87303.38130090233,87303.38130090233,87303.38130090233,0.05126591545452912,0.15972718389096596,0.06049380045306997,0.16294925227885626,0.0,0.15510785904455895
87303.38630090233,87303.38630090233,87303.38630090233,87303.38630090233,0.05006594028809098,0.15923599167251937,0.05930444277496541,0.16254245881173987,0.0,0.1512946994347116
87303.39130090234,87303.39130090234,87303.39130090234,87303.39130090234,0.05113404166971269,0.1587337440910125,0.05823619301305858,0.16212443436821147,0.0,0.1473762640299087
87303.39630090234,87303.39630090234,87303.39630090234,87303.39630090234,0.052333911247074504,0.15822072427117276,0.05730317891655494,0.16169521902941097,0.0,0.1433529285387005
87303.40130090235,87303.40130090235,87303.40130090235,87303.40130090235,0.05353354676369068,0.15769683652749203,0.05651224006722435,0.16125485062484743,0.0,0.13922504756352697
87303.40630090235,87303.40630090235,87303.40630090235,87303.40630090235,0.05473282788835728,0.15716214987052257,0.055869530753311754,0.1608033748873972,0.0,0.1349930497906162
87303.41130090236,87303.41130090236,87303.41130090236,87303.41130090236,0.05593164020497766,0.15661684613971197,0.0553803097161263,0.16034084894100198,0.0,0.13065747068261616
87303.41630090236,87303.41630090236,87303.41630090236,87303.41630090236,0.0571298519907238,0.15606074268154663,0.05504874016546754,0.1598672955522067,0.0,0.12621852364627184
87303.42130090237,87303.42130090237,87303.42130090237,87303.42130090237,0.05832735345165269,0.1554940932828263,0.054877730496932564,0.15938277413054172,0.0,0.12167676556865242
87303.42630090237,87303.42630090237,87303.42630090237,87303.42630090237,0.059524029150621396,0.15491696945261718,0.05486880848242147,0.1588873445865875,0.0,0.11703275803351947
87303.43130090238,87303.43130090238,87303.43130090238,87303.43130090238,0.06071973868339633,0.1543292059638991,0.05502205288960756,0.15838104342574524,0.0,0.11228684323152464
87303.43630090238,87303.43630090238,87303.43630090238,87303.43630090238,0.06191438298485828,0.1537310850492855,0.05533609364626743,0.15786391607860278,0.0,0.10743944701533382
87303.44130090238,87303.44130090238,87303.44130090238,87303.44130090238,0.06310784341260897,0.15312265220861032,0.055808171866418545,0.15733603374545993,0.0,0.10249123679514269
87303.44630090239,87303.44630090239,87303.44630090239,87303.44630090239,0.06429997899568102,0.15250379699321592,0.0564342512799795,0.15679743444231634,0.0,0.09744256892149794
87303.4513009024,87303.4513009024,87303.4513009024,87303.4513009024,0.06549069682888986,0.15187478135027352,0.05720918581535465,0.15624817448695524,0.0,0.09229397130036104
87303.4563009024,87303.4563009024,87303.4563009024,87303.4563009024,0.06667986327520985,0.15123555931168814,0.058126910087013164,0.1556883160446002,0.0,0.08704602664984022
87303.4613009024,87303.4613009024,87303.4613009024,87303.4613009024,0.06786736355819606,0.15058622144329528,0.059180649164849934,0.15511791177594625,0.0,0.08169922859545194
87303.46630090241,87303.46630090241,87303.46630090241,87303.46630090241,0.06905306890389827,0.14992677977497237,0.060363128086028575,0.15453701075904241,0.0,0.07625403718006672
87303.47130090241,87303.47130090241,87303.47130090241,87303.47130090241,0.07023686562581456,0.14925733135272648,0.06155172763250816,0.15394567884460755,0.0,0.07071106966851726
87303.47630090242,87303.47630090242,87303.47630090242,87303.47630090242,0.07141864373052892,0.5523452919911058,0.0627393552717486,0.20298397051163275,0.0,0.5303812665527584
87303.48130090242,87303.48130090242,87303.48130090242,87303.48130090242,0.07259830097772806,0.2177422295488921,0.063925884758439,0.20642541976958986,0.0,0.5626403768152802
87303.48630090243,87303.48630090243,87303.48630090243,87303.48630090243,0.07377566071072415,0.1471898102807518,0.0651111864136239,0.2059654342558754,0.0,0.5583286109591462
87303.49130090243,87303.49130090243,87303.49130090243,87303.49130090243,0.07495067992954878,0.14648117897282162,0.06629513631524822,0.205498792732144,0.0,0.5539544536670353
87303.49630090244,87303.49630090244,87303.49630090244,87303.49630090244,0.07612318801207615,0.14576283372749438,0.06747760802182705,0.2050255943351726,0.0,0.5495188342172774
87303.50130090244,87303.50130090244,87303.50130090244,87303.50130090244,0.07729305181599082,0.14503480026910612,0.06865847409820984,0.20454592845543015,0.0,0.545022590529243
87303.50630090245,87303.50630090245,87303.50630090245,87303.50630090245,0.07846021979110405,0.37951228303146634,0.06983761213131195,0.22212818583962898,0.0,0.7098333830491358
87303.51130090245,87303.51130090245,87303.51130090245,87303.51130090245,0.07962456853401491,0.2080115969588216,0.0710149008746163,0.22484803420399124,0.0,0.7353284235703449
87303.51630090245,87303.51630090245,87303.51630090245,87303.51630090245,0.08078590319739813,0.1427943415418932,0.07219021301167186,0.22439685732429773,0.0,0.7310992272001583
87303.52130090246,87303.52130090246,87303.52130090246,87303.52130090246,0.08194419375778929,0.1420288855612531,0.0733634278204886,0.2239404009645636,0.0,0.7268205425719755
87303.52630090246,87303.52630090246,87303.52630090246,87303.52630090246,0.08309927970209599,0.1412541960800909,0.07453442310994415,0.2234787728677487,0.0,0.722493379635896
87303.53130090247,87303.53130090247,87303.53130090247,87303.53130090247,0.08425103802997955,0.14047033333831516,0.07570307527245439,0.22301207311735124,0.0,0.7181186765445303
87303.53630090247,87303.53630090247,87303.53630090247,87303.53630090247,0.0853994209447628,0.13967755290307532,0.07686926670596743,0.2225404149365702,0.0,0.7136974946180916
87303.54130090248,87303.54130090248,87303.54130090248,87303.54130090248,0.08654420365533128,0.13887565122531684,0.07803287238906335,0.2220639008395078,0.0,0.7092307947929409
