timestamp,sample_timestamp,left_raw,right_raw
87300.1522055,87300.1522055,0.757098290605555,0.16650949156922484
87300.1572055,87300.1572055,0.07095853165157548,0.16621627141722037
87300.1622055,87300.1622055,0.0697759485669723,0.16591150725571885
87300.16720550001,87300.16720550001,0.06859139525249407,0.1655951972489232
87300.17220550001,87300.17220550001,0.06740498797100279,0.16526736698130787
87300.17720550002,87300.17720550002,0.4101663507837226,0.16492786130921847
87300.18220550002,87300.18220550002,0.06502703729092107,0.16457694239822548
87300.18720550003,87300.18720550003,0.06383517134676836,0.16420968679415923
87300.19220550003,87300.19220550003,0.06264284373135977,0.163838675139246
87300.19720550004,87300.19720550004,0.06144913690432312,0.1634554043011761
87300.20220550004,87300.20220550004,0.06025405428611013,0.16305879331094467
87300.20720550005,87300.20720550005,0.05905796518027624,0.16265109205639708
87300.21220550005,87300.21220550005,0.05786095916296338,0.16223200820122938
87300.21720550006,87300.21720550006,0.05666316577248374,0.16180169299353178
87300.22220550006,87300.22220550006,0.05546470909607076,0.16136026366957337
87300.22720550006,87300.22720550006,0.05426569578087677,0.16090748131127966
87300.23220550007,87300.23220550007,0.053066260344203635,0.16044366815543412
87300.23720550007,87300.23720550007,0.051866524305611256,0.1599690671790699
87300.24220550008,87300.24220550008,0.05066659568482228,0.15948316673533922
87300.24720550008,87300.24720550008,0.050533398075321125,0.15898654811079543
87300.25220550009,87300.25220550009,0.051733335327482706,0.3228926482112632
87300.2572055001,87300.2572055001,0.05293310602566473,0.15796040997802036
87300.2622055001,87300.2622055001,0.054132580399737354,0.15743114839293956
87300.2672055001,87300.2672055001,0.05533163769733973,0.15689106017346185
87300.2722055001,87300.2722055001,0.056530164104415345,0.1563403465525155
87300.27720550011,87300.27720550011,0.05772804582915175,0.15577911762457852
87300.28220550012,87300.28220550012,0.05892515036857434,0.1552072280410708
87300.28720550012,87300.28720550012,0.2026821926591265,0.15462470813548754
87300.29220550013,87300.29220550013,0.06131655233460331,0.15403183628497094
87300.29720550013,87300.29720550013,0.06251061893794363,0.1534285420495653
87300.30220550013,87300.30220550013,0.06370343451968849,0.15281490404622486
87300.30720550014,87300.30720550014,0.305410343102564,0.15219096807850105
87300.31220550014,87300.31220550014,0.0660848312944891,0.15155681656117742
87300.31720550015,87300.31720550015,0.0672731684270414,0.15091246158241403
87300.32220550015,87300.32220550015,0.06845978050480354,0.1502580363162647
87300.32720550016,87300.32720550016,0.06964456482575522,0.1495936813654306
87300.33220550016,87300.33220550016,0.07082738754786332,0.14891937337483863
87300.33720550017,87300.33720550017,0.3289825094731923,0.1482350303725348
87300.34220550017,87300.34220550017,0.07318662688235116,0.14754095881299772
87300.34720550018,87300.34720550018,0.07436282043290118,0.14683706171653396
87300.35220550018,87300.35220550018,0.0755366017880379,0.14612357725100678
87300.35720550019,87300.35720550019,0.07670779938196487,0.14540036800723305
87300.36220550019,87300.36220550019,0.07787636271888805,0.14466774946277172
87300.3672055002,87300.3672055002,0.07904204748653723,0.14392536445418447
87300.3722055002,87300.3722055002,0.08020496575057118,0.1431740330737463
87300.3772055002,87300.3772055002,0.08136482390801206,0.14241324914387793
87300.38220550021,87300.38220550021,0.08252150406761032,0.14164310054382503
87300.38720550021,87300.38720550021,0.08367493701738463,0.1408638049506173
87300.39220550022,87300.39220550022,0.08482498221702651,0.14007537304954196
87300.39720550022,87300.39720550022,0.08597160491151022,0.1392780892858696
87300.40220550023,87300.40220550023,0.08711460935623744,0.1384718215304993
87300.40720550023,87300.40720550023,0.08825391463616881,0.13765673399792908
87300.41220550024,87300.41220550024,0.0893893460031159,0.13683276997985283
87300.41720550024,87300.41720550024,0.09052083593612396,0.13600012235941641
87300.42220550025,87300.42220550025,0.09164833023387166,0.13515899472946225
87300.42720550025,87300.42720550025,0.29086896122415357,0.13430938275815885
87300.43220550026,87300.43220550026,0.09389068630134913,0.13345121752097078
87300.43720550026,87300.43720550026,0.09500530982676193,0.1325847163408281
87300.44220550027,87300.44220550027,0.09611545247107399,0.13170999344575976
87300.44720550027,87300.44720550027,0.097221025482452,0.13082717105665678
87300.45220550027,87300.45220550027,0.5464253204248606,0.20800414560439204
87300.45720550028,87300.45720550028,0.09941775237756799,0.12903712284315294
87300.46220550028,87300.46220550028,0.10050879095559362,0.1281302532672301
87300.46720550029,87300.46720550029,0.10159473333615356,0.12721550197384046
87300.4722055003,87300.4722055003,0.10267560312230982,0.12629315899850185
87300.4772055003,87300.4772055003,0.10375110697202007,0.2979947113148914
87300.4822055003,87300.4822055003,0.10482127081305317,0.12442544475967453
87300.4872055003,87300.4872055003,0.10588605533955156,0.12348053914294128
87300.49220550031,87300.49220550031,0.10694513843444052,0.12252813444568363
87300.49720550032,87300.49720550032,0.10799856660787911,0.12156852756720322
87300.50220550032,87300.50220550032,0.10904614041205392,0.1206016977281104
87300.50720550033,87300.50720550033,0.11008787546584856,0.11962788680469226
87300.51220550033,87300.51220550033,0.11112356982481673,0.16916313440262687
87300.51720550033,87300.51720550033,0.11215313584919555,0.1176593825075729
87300.52220550034,87300.52220550034,0.11317650575909859,0.11666494506074104
87300.52720550034,87300.52720550034,0.11419362370528607,0.1156639086000877
87300.53220550035,87300.53220550035,0.11520426409508498,0.11465624402616935
87300.53720550035,87300.53720550035,0.11620834514125193,0.11364207610172292
87300.54220550036,87300.54220550036,0.11720585428825647,0.1126215918153344
87300.54720550036,87300.54720550036,0.11819654125990241,0.11159475276249473
87300.55220550037,87300.55220550037,0.5465445021852737,0.11056190513516206
87300.55720550037,87300.55720550037,0.12015762301167734,0.10952293833494707
87300.56220550038,87300.56220550038,0.12112765909230475,0.10847802245058508
87300.56720550038,87300.56720550038,0.12209050000062055,0.10742719235220533
87300.57220550039,87300.57220550039,0.12304619430849824,0.21358029623177485
87300.57720550039,87300.57720550039,0.3956686368326779,0.10530856959100152
87300.5822055004,87300.5822055004,0.12493565178122434,0.10424088027733727
87300.5872055004,87300.5872055004,0.12586914217133402,0.10316776142244068
87300.5922055004,87300.5922055004,0.12679501034327598,0.10208930249942441
87300.59720550041,87300.59720550041,0.12771329976843637,0.10100570257497336
87300.60220550041,87300.60220550041,0.1286237020497862,0.09991692624983764
87300.60720550042,87300.60720550042,0.12952634607013683,0.0988232247839211
87300.61220550042,87300.61220550042,0.1304210315315086,0.0977246357696182
87300.61720550043,87300.61720550043,0.13130761667434743,0.09662123948008303
87300.62220550043,87300.62220550043,0.1321860821944863,0.09551318798454796
87300.62720550044,87300.62720550044,0.13305637070915766,0.09440060795275482
87300.63220550044,87300.63220550044,0.13391825530372037,0.09328353600539839
87300.63720550045,87300.63720550045,0.13477179518539448,0.09216216151914815
87300.64220550045,87300.64220550045,0.45472912848239055,0.09103660906515197
87300.64720550046,87300.64720550046,0.13645346283616644,0.08990692682247568
87300.65220550046,87300.65220550046,0.13728136697500096,0.08877326366469077
87300.65720550047,87300.65720550047,0.13810051650669372,0.08763571102204773
87300.66220550047,87300.66220550047,0.13891067580519306,0.08649432038960182
87300.66720550047,87300.66720550047,0.16893612732626967,0.08534940935811466
87300.67220550048,87300.67220550048,0.14050477103512737,0.08420092435751543
87300.67720550048,87300.67720550048,0.14128813415733374,0.08304898074175973
87300.68220550049,87300.68220550049,0.14206237333023297,0.08189373580859255
87300.6872055005,87300.6872055005,0.1428275220965285,0.08073534156022526
87300.6922055005,87300.6922055005,0.1435833782667482,0.07957386902790672
87300.6972055005,87300.6972055005,0.14432977111080575,0.07840940609909797
87300.7022055005,87300.7022055005,0.14506678502780404,0.07724211924848284
87300.70720550051,87300.70720550051,0.14579427924355512,0.07607210477938753
87300.71220550052,87300.71220550052,0.14651207139646544,0.07489945188536551
87300.71720550052,87300.71720550052,0.14722054699428047,0.07372439468132473
87300.72220550053,87300.72220550053,0.14791911205863778,0.07254691627637656
87300.72720550053,87300.72720550053,0.14860781873562537,0.07136716843685881
87300.73220550054,87300.73220550054,0.1492867107674288,0.07018529482801583
87300.73720550054,87300.73720550054,0.14995576116259274,0.0690014196311049
87300.74220550054,87300.74220550054,0.15061472323873434,0.0678156260687581
87300.74720550055,87300.74720550055,0.1512635433367434,0.06662803803565899
87300.75220550055,87300.75220550055,0.15190237042512142,0.0654388099354048
87300.75720550056,87300.75720550056,0.15253106391209428,0.06424804517695161
87300.76220550056,87300.76220550056,0.15314940576881603,0.06305584077019921
87300.76720550057,87300.76720550057,0.1537574900669084,0.08183812032745863
87300.77220550057,87300.77220550057,0.15435506747107675,0.06066763355496774
87300.77720550058,87300.77720550058,0.1549422631670618,0.059471869547632915
87300.78220550058,87300.78220550058,0.1555190420487433,0.05827516511207154
87300.78720550059,87300.78720550059,0.15608515427129283,0.05707762442789482
87300.79220550059,87300.79220550059,0.15664083416439967,0.09644879009294238
87300.7972055006,87300.7972055006,0.15718565180363003,0.05468055095203106
87300.8022055006,87300.8022055006,0.6206522398523795,0.05348125222539481
87300.8072055006,87300.8072055006,0.8022984073406471,0.05228160619836825
87300.81220550061,87300.81220550061,0.4401679674152838,0.051081728695543664
87300.81720550061,87300.81720550061,0.15925757081875602,0.050133438935172046
87300.82220550062,87300.82220550062,0.15974837706711895,0.2745304057763496
87300.82720550062,87300.82720550062,0.16022817379269413,0.05251806867210792
87300.83220550063,87300.83220550063,0.16069706790916313,0.053717660526517295
87300.83720550063,87300.83720550063,0.16115466564749747,0.05491687286387361
87300.84220550064,87300.84220550064,0.16160131791534094,0.05611560025952425
87300.84720550064,87300.84720550064,0.16203685436638599,0.05731371978604892
87300.85220550065,87300.85220550065,0.1624609840488143,0.05851109442963592
87300.85720550065,87300.85720550065,0.45678167062992925,0.05970762956966271
87300.86220550066,87300.86220550066,0.16327571556216308,0.06090318807997459
87300.8863009,87300.8863009,0.16505206525369706,0.33081491417343256
87300.89130090001,87300.89130090001,0.16538742728603678,0.06783482683233608
87300.89630090001,87300.89630090001,0.16568804442369528,0.06901642523451991
87300.90130090002,87300.90130090002,0.16597791941722406,0.07019612486339774
87300.90630090002,87300.90630090002,0.16626779441075284,0.07137582449227557
87300.91130090003,87300.91130090003,0.16655766940428163,0.0725555241211534
87300.91630090003,87300.91630090003,0.16684754439781044,0.07373522375003123
87300.92130090004,87300.92130090004,0.16713741939133922,0.07491492337890907
87300.92630090004,87300.92630090004,0.1674093849309456,0.07609104902177058
87300.93130090005,87300.93130090005,0.16765116613577347,0.07726093766037528
87300.93630090005,87300.93630090005,0.167881931279739,0.07842827479617881
87300.94130090006,87300.94130090006,0.16810047855539118,0.5055193840697879
87300.94630090006,87300.94630090006,0.16830714224829285,0.08075408477984453
87300.95130090007,87300.95130090007,0.41518624814827504,0.08191245553949689
87300.95630090007,87300.95630090007,0.16868525390191566,0.08306765107230345
87300.96130090008,87300.96130090008,0.16885638993117705,0.08421949721780303
87300.96630090008,87300.96630090008,0.16901576937287388,0.08536795834338398
87300.97130090008,87300.97130090008,0.16916312131911113,0.08651284526966375
87300.97630090009,87300.97630090009,0.16929875210370332,0.08765414130683326
87300.9813009001,87300.9813009001,0.16942184985370307,0.08879147832856016
87300.9863009001,87300.9863009001,0.16953385391037828,0.08992521083096261
87300.9913009001,87300.9913009001,0.626352536327391,0.09105481412924929
87300.99630090011,87300.99630090011,0.16972120722435868,0.09218032951915239
87301.00130090011,87301.00130090011,0.4285728123209686,0.09330160952758945
87301.00630090012,87301.00630090012,0.1698607300347099,0.09441859619869833
87301.01130090012,87301.01130090012,0.1699125524664983,0.7212552914386879
87301.01630090013,87301.01630090013,0.16995235641921913,0.09663911464865547
87301.02130090013,87301.02130090013,0.16998013107351173,0.09774241521955528
87301.02630090014,87301.02630090014,0.16999588385632416,0.09884093172870012
87301.03130090014,87301.03130090014,0.16999968286324002,0.09993458236880248
87301.03630090014,87301.03630090014,0.16999136238277637,0.24190447265934334
87301.04130090015,87301.04130090015,0.16997124229063565,0.1021067777801067
87301.04630090015,87301.04630090015,0.1699390210797051,0.10318511141642638
87301.05130090016,87301.05130090016,0.16989495949927713,0.128923734228946
87301.05630090016,87301.05630090016,0.16983872544590217,0.10532577189950525
87301.06130090017,87301.06130090017,0.16977047662416028,0.24184615609899013
87301.06630090017,87301.06630090017,0.16969044544526643,0.10744428197755691
87301.07130090018,87301.07130090018,0.16959830717058735,0.10849495374909689
87301.07630090018,87301.07630090018,0.16949417092930388,0.47319805808851007
87301.08130090019,87301.08130090019,0.1693780916454365,0.11057860772258513
87301.08630090019,87301.08630090019,0.16925019268586877,0.11161146100572551
87301.0913009002,87301.0913009002,0.16911027008153043,0.11263810232868342
87301.0963009002,87301.0963009002,0.47751625771624095,0.11365848215663248
87301.1013009002,87301.1013009002,0.16879489101615724,0.11467258996605235
87301.10630090021,87301.10630090021,0.16861923943756355,0.11568011054750213
87301.11130090021,87301.11130090021,0.1684316379777482,0.5664647483141521
87301.11630090022,87301.11630090022,0.16823249473444707,0.11767541522707135
87301.12130090022,87301.12130090022,0.16802140594399254,0.11866298209037773
87301.12630090023,87301.12630090023,0.16779845560961146,0.1196436477166175
87301.13130090023,87301.13130090023,0.16756389320577725,0.12061744894915645
87301.13630090024,87301.13630090024,0.16731736993619695,0.12158406591060904
87301.14130090024,87301.14130090024,0.1670592726250615,0.12254362058489755
87301.14630090025,87301.14630090025,0.1667894226038914,0.1473069470348264
87301.15130090025,87301.15130090025,0.16650779187645695,0.124440751182552
87301.15630090026,87301.15630090026,0.16621461111556682,0.1253782293573506
87301.16130090026,87301.16130090026,0.622748080877558,0.12630807684230058
87301.16630090027,87301.16630090027,0.1655933095101797,0.12723040960826576
87301.17130090027,87301.17130090027,0.165265375297738,0.35312896964017815
87301.17630090028,87301.17630090028,0.16492591335220477,0.1290517938876164
87301.18130090028,87301.18130090028,0.1645748988735338,0.12995063255278327
87301.18630090028,87301.18630090028,0.16421237087911097,0.4459931891584986
87301.19130090029,87301.19130090029,0.16383861877974032,0.1317242958519431
87301.1963009003,87301.1963009003,0.16345319533117597,0.13259877619942764
87301.2013009003,87301.2013009003,0.16305661057772336,0.133465129209709
87301.2063009003,87301.2063009003,0.1626487566495318,0.13432316345572354
87301.21130090031,87301.21130090031,0.1622296001243868,0.13517273778732242
87301.21630090031,87301.21630090031,0.1617991288221873,0.1360137248021188
87301.22130090032,87301.22130090032,0.6292561003345327,0.1368462701397379
87301.22630090032,87301.22630090032,0.16090487233706263,0.13766995015654693
87301.23130090033,87301.23130090033,0.16044105353686391,0.13848492830037692
87301.23630090033,87301.23630090033,0.15996629406405488,0.1392911417457063
87301.24130090034,87301.24130090034,0.15948034957699447,0.14008827292579046
87301.24630090034,87301.24630090034,0.15898359678661944,0.3329331240685874
87301.25130090035,87301.25130090035,0.1584758699968493,0.1416555955685471
87301.25630090035,87301.25630090035,0.1579573970955169,0.14242560209623709
87301.26130090035,87301.26130090035,0.15742807329129715,0.1431863195898741
87301.26630090036,87301.26630090036,0.15688802020215195,0.14393773063221008
87301.27130090036,87301.27130090036,0.1563371732276556,0.35347133712999584
87301.27630090037,87301.27630090037,0.15577587079372276,0.14541227010111774
87301.28130090037,87301.28130090037,0.1552037804374837,0.14613515409476255
87301.28630090038,87301.28630090038,0.15462138817265753,0.14684862416255334
87301.29130090038,87301.29130090038,0.15402829628515866,0.6503138560807262
87301.29630090039,87301.29630090039,0.1534250033918774,0.14824618748491347
87301.30130090039,87301.30130090039,0.15281137620404056,0.15159476196374855
87301.3063009004,87301.3063009004,0.15218737456957848,0.14960457184123074
87301.3113009004,87301.3113009004,0.15155310549355216,0.1502687641363399
87301.3163009004,87301.3163009004,0.1509087797872015,0.15092302639182584
87301.32130090041,87301.32130090041,0.15025426221255658,0.4276384494263725
87301.32630090041,87301.32630090041,0.14958973947160373,0.15220102598785823
87301.33130090042,87301.33130090042,0.7634746558998107,0.15282490752396446
87301.33630090042,87301.33630090042,0.14823110178429097,0.32602071473418076
87301.34130090043,87301.34130090043,0.1475369761482467,0.15404154906814438
87301.34630090043,87301.34630090043,0.14683299469204383,0.15463419417945012
87301.35130090044,87301.35130090044,0.14611939632414056,0.15521644642184274
87301.35630090044,87301.35630090044,0.14539629743955026,0.15578830009954123
87301.36130090045,87301.36130090045,0.14466346649107442,0.15634936160963855
87301.36630090045,87301.36630090045,0.1439213012627833,0.15689993583607276
87301.37130090046,87301.37130090046,0.14316966237166648,0.1574397271338131
87301.37630090046,87301.37630090046,0.14240876846889616,0.15796884546086729
87301.38130090047,87301.38130090047,0.1416386734273036,0.15848721449976005
87301.38630090047,87301.38630090047,0.14085930700242758,0.15899460756271325
87301.39130090048,87301.39130090048,0.14007088714067026,0.26111299334120613
87301.39630090048,87301.39630090048,0.13927351657317685,0.15997679068910367
87301.40130090048,87301.40130090048,0.13846715447179714,0.16045136545004796
87301.40630090049,87301.40630090049,0.137651948139358,0.1609148975491546
87301.4113009005,87301.4113009005,0.13682800971373835,0.16136737978647603
87301.4163009005,87301.4163009005,0.1359954143754146,0.16180875909419887
87301.4213009005,87301.4213009005,0.13515413952270602,0.16223885358240764
87301.42630090051,87301.42630090051,0.1343043978649049,0.16265778756800278
87301.43130090051,87301.43130090051,0.13344631413024177,0.16306557550300696
87301.43630090052,87301.43630090052,0.13257970149772974,0.16346180719444353
87301.44130090052,87301.44130090052,0.1317049090031994,0.16384679819305079
87301.44630090053,87301.44630090053,0.13082191693887935,0.42843696054338115
87301.45130090053,87301.45130090053,0.1299309886217684,0.16458271264597132
87301.45630090054,87301.45630090054,0.12903191576724396,0.16493338839755056
87301.46130090054,87301.46130090054,0.26662353541587025,0.16527263630675101
87301.46630090055,87301.46630090055,0.540800907757454,0.16560039280391842
87301.47130090055,87301.47130090055,0.12628784745418317,0.16591662112496663
87301.47630090055,87301.47630090055,0.22199623790460682,0.21073664838310574
87301.48130090056,87301.48130090056,0.12442012127366278,0.16651413078027472
87301.48630090056,87301.48630090056,0.4779648324382965,0.16679529391006082
87301.49130090057,87301.49130090057,0.12252259965738724,0.1670649896001424
87301.49630090057,87301.49630090057,0.12156294901061118,0.16732293039247173
87301.50130090058,87301.50130090058,0.12059610431501344,0.16756907707462512
87301.50630090058,87301.50630090058,0.11962226795249041,0.16780358065163664
87301.51130090059,87301.51130090059,0.1186413994242907,0.16802618605173247
87301.51630090059,87301.51630090059,0.5312022873533395,0.1682369441663063
87301.5213009006,87301.5213009006,0.11665921253955808,0.16843604173177426
87301.5263009006,87301.5263009006,0.11565808495542614,0.16862324002932566
87301.5313009006,87301.5313009006,0.15517457728568546,0.1687985750040497
87301.53630090061,87301.53630090061,0.11363621678292281,0.593098306838472
87301.54130090062,87301.54130090062,0.11261564669260739,0.16911347461107198
87301.54630090062,87301.54630090062,0.1115888884601009,0.16925317341772603
87301.55130090062,87301.55130090062,0.11055593198455674,0.16938087215902026
87301.55630090063,87301.55630090063,0.10951693611737967,0.16949666509480218
87301.56130090063,87301.56130090063,0.10847192310226844,0.5230949941610328
87301.56630090064,87301.56630090064,0.10742106414614816,0.1696921249079175
87301.57130090064,87301.57130090064,0.10636455918426288,0.16977210507102894
87301.57630090065,87301.57630090065,0.10530241841286633,0.16984011318702297
87301.58130090065,87301.58130090065,0.10423469899311776,0.169896034216785
87301.58630090066,87301.58630090066,0.1031615299998055,0.1699399068292207
87301.59130090066,87301.59130090066,0.10208299546866831,0.16997166915374065
87301.59630090067,87301.59630090067,0.10099935663848139,0.16999167107169783
87301.60130090067,87301.60130090067,0.09991064172512816,0.16999973406203897
87301.60630090068,87301.60630090068,0.09881689854783231,0.7463468710496519
87301.61130090068,87301.61130090068,0.22535794798094025,0.16997962677802053
87301.61630090069,87301.61630090069,0.09661483790611448,0.16995157134304054
87301.62130090069,87301.62130090069,0.09550674712787495,0.7054821573877886
87301.6263009007,87301.6263009007,0.09439413927792291,0.1698594694655182
87301.6313009007,87301.6313009007,0.09327709933966123,0.1697955033402969
87301.6363009007,87301.6363009007,0.09215571172162183,0.16971950371838537
87301.64130090071,87301.64130090071,0.09103011988151793,0.5929335702612224
87301.64630090071,87301.64630090071,0.4699656274072852,0.16953154684937088
87301.65130090072,87301.65130090072,0.2033434579563299,0.16941961226749755
87301.65630090072,87301.65630090072,0.08762913602877355,0.1692958927665644
87301.66130090073,87301.66130090073,0.08648779918556185,0.1691601321015396
87301.66630090073,87301.66630090073,0.0853427896506715,0.16901237485284307
87301.67130090074,87301.67130090074,0.08419425881370265,0.4069260836527355
87301.67630090074,87301.67630090074,0.08304232697369089,0.16868131708703235
87301.68130090075,87301.68130090075,0.08188709921168227,0.16849804222160128
87301.68630090075,87301.68630090075,0.08072866449953517,0.1683028511126706
87301.69130090075,87301.69130090075,0.07956714744068816,0.16809579180715253
87301.69630090076,87301.69630090076,0.0784027049182182,0.16787704880547935
87301.70130090076,87301.70130090076,0.07723538575576644,0.16764636730506208
87301.70630090077,87301.70630090077,0.07606536707281732,0.16740402367651577
87301.71130090077,87301.71130090077,0.07489271587246228,0.16714981997996123
87301.71630090078,87301.71630090078,0.07371760376754356,0.16688403419110942
87301.72130090078,87301.72130090078,0.07254011904848304,0.16660655808901295
87301.72630090079,87301.72630090079,0.07136036010860003,0.16631731705954225
87301.73130090079,87301.73130090079,0.0701784925890385,0.7169301903296691
87301.7363009008,87301.7363009008,0.12463275031833587,0.16570417976661678
87301.7413009008,87301.7413009008,0.0678087797454412,0.16538013358445805
87301.7463009008,87301.7463009008,0.0666211921629055,0.1650445699963766
87301.75130090081,87301.75130090081,0.06543196567306313,0.16469766783491194
87301.75630090082,87301.75630090082,0.06424115997313898,0.16433902781747106
87301.76130090082,87301.76130090082,0.6862716428532581,0.16396920839475096
87301.76630090082,87301.76630090082,0.06185543941168974,0.16358781568341874
87301.77130090083,87301.77130090083,0.36132413928048135,0.16319512658686422
87301.77630090083,87301.77630090083,0.059464975688873344,0.16279117926472725
87301.78130090084,87301.78130090084,0.05826825940663051,0.1623758674486055
87301.78630090084,87301.78630090084,0.05707072207623861,0.16194939763782373
87301.79130090085,87301.79130090085,0.05587246821185683,0.16151157408643824
87301.79630090085,87301.79630090085,0.054673637636180675,0.16106279827868242
87301.80130090086,87301.80130090086,0.05347433330887364,0.16060277424006636
87301.80630090086,87301.80630090086,0.052274684645018235,0.160131779752966
87301.81130090087,87301.81130090087,0.0510748068421173,0.15964969702575368
87301.81630090087,87301.81630090087,0.050200246941921496,0.2089596633143516
87301.82130090088,87301.82130090088,0.05132515068976404,0.15865285305334262
87301.82630090088,87301.82630090088,0.05252499059156496,0.1581380359036605
87301.83130090089,87301.83130090089,0.05372457673003898,0.15761238817593717
87301.83630090089,87301.83630090089,0.05492378923841989,0.15707597177780483
87301.8413009009,87301.8413009009,0.05612251697199229,0.1565290000649692
87301.8463009009,87301.8463009009,0.057320620712970456,0.2947524784371347
87301.8513009009,87301.8513009009,0.058518002879548614,0.15540290599076495
87301.85630090091,87301.85630090091,0.05971452415120727,0.1548239870767841
87301.86130090091,87301.86130090091,0.06091008126181376,0.15423466711463563
87301.86630090092,87301.86630090092,0.06210455215213707,0.1536349599761724
87301.87130090092,87301.87130090092,0.06329776650032978,0.15302451857190782
87301.87630090093,87301.87630090093,0.06448972320595847,0.15240434163627703
87301.88130090093,87301.88130090093,0.0656802068154453,0.15177372496764144
87301.88630090094,87301.88630090094,0.06686908832957175,0.15113271812505735
87301.89130090094,87301.89130090094,0.06805633156765856,0.15048188890254943
87301.89630090095,87301.89630090095,0.06924172729397497,0.5629140258838041
87301.90130090095,87301.90130090095,0.07042521815105238,0.14914978852541455
87301.90630090096,87301.90630090096,0.07160667338630138,0.14846891553016453
87301.91130090096,87301.91130090096,0.07278596733863017,0.1477781888169857
87301.91630090096,87301.91630090096,0.0739629752663904,0.14707765127194344
87301.92130090097,87301.92130090097,0.08304372862037915,0.14636743498694654
87301.92630090097,87301.92630090097,0.28263263129705085,0.1456475360257581
87301.93130090098,87301.93130090098,0.11033707776377666,0.14491808284194968
87301.93630090098,87301.93630090098,0.07864586084807436,0.14417910608853565
87301.94130090099,87301.94130090099,0.07980970826644176,0.1434307296343553
87301.94630090099,87301.94630090099,0.08097061794134393,0.14267314154576502
87301.951300901,87301.951300901,0.16957857717519567,0.14190610205232182
87301.956300901,87301.956300901,0.08328292397081337,0.1411299210766612
87301.961300901,87301.961300901,0.0844341783361979,0.14034470366360716
87301.96630090101,87301.96630090101,0.08558195369110265,0.13955035780853903
87301.97130090102,87301.97130090102,0.17064257230941007,0.13874708624592438
87301.97630090102,87301.97630090102,0.08786673894343129,0.13793494609105483
87301.98130090102,87301.98130090102,0.08900351626471231,0.137114027651083
87301.98630090103,87301.98630090103,0.09013639896663111,0.13628440979751974
87301.99130090103,87301.99130090103,0.09126521578156137,0.13544605407751792
87301.99630090104,87301.99630090104,0.09239001936688097,0.134599386459308
87302.00130090104,87302.00130090104,0.3149890245413516,0.1337440860532303
87302.00630090105,87302.00630090105,0.09462664390572059,0.1328804423523987
87302.01130090105,87302.01130090105,0.1095110161856606,0.13200855728518934
87302.01630090106,87302.01630090106,0.09684544604349005,0.13112839895677592
87302.02130090106,87302.02130090106,0.09794773018010217,0.13023991947606567
87302.02630090107,87302.02630090107,0.09904546651098645,0.1293438310849639
87302.03130090107,87302.03130090107,0.10013823357891076,0.12843969536096483
87302.03630090108,87302.03630090108,0.10122588065404749,0.12752755073591626
87302.04130090108,87302.04130090108,0.48346229983653477,0.12660778862266114
87302.04630090109,87302.04630090109,0.10338589434652841,0.12568039046693827
87302.05130090109,87302.05130090109,0.10445783575595526,0.12474525398358778
87302.0563009011,87302.0563009011,0.10552448276847412,0.12380285139791691
87302.0613009011,87302.0613009011,0.10658550632908458,0.1228529707514299
87302.0663009011,87302.0663009011,0.10764084112531344,0.1218957666686171
87302.07130090111,87302.07130090111,0.10869036904841356,0.12093132340299417
87302.07630090111,87302.07630090111,0.10973418618458665,0.11995997800917263
87302.08130090112,87302.08130090112,0.11077192499694284,0.11898151076274925
87302.08630090112,87302.08630090112,0.11180358399568083,0.3875932923884335
87302.09130090113,87302.09130090113,0.11282908315657103,0.11700400068911175
87302.09630090113,87302.09630090113,0.11384831952371964,0.1160051773959897
87302.10130090114,87302.10130090114,0.1148610676801342,0.11499964874696605
87302.10630090114,87302.10630090114,0.11586751729129549,0.11398780759257068
87302.11130090115,87302.11130090115,0.11686726584658155,0.11296945369962713
87302.11630090115,87302.11630090115,0.11786029694123479,0.11194477522532852
87302.12130090116,87302.12130090116,0.11884650468510512,0.11091387151545393
87302.12630090116,87302.12630090116,0.11982604221537047,0.30914760335814223
87302.13130090116,87302.13130090116,0.12079842613327434,0.10883412043143935
87302.13630090117,87302.13630090117,0.1217637106874898,0.10778527882911038
87302.14130090117,87302.14130090117,0.12272194069044974,0.10673075653033663
87302.14630090118,87302.14630090118,0.12367285885096153,0.10567052785000257
87302.15130090118,87302.15130090118,0.4291122547825669,0.10460470242345143
87302.15630090119,87302.15630090119,0.12555240719342517,0.10353340690764962
87302.16130090119,87302.16130090119,0.1264809512751815,0.10245680252207791
87302.1663009012,87302.1663009012,0.1274016827425263,0.10137484151054825
87302.1713009012,87302.1713009012,0.12831487738376288,0.10028787917255837
87302.1763009012,87302.1763009012,0.1292201354214571,0.09919581934008793
87302.18130090121,87302.18130090121,0.13011750565826447,0.19128650154328086
87302.18630090122,87302.18630090122,0.1310068905988186,0.09699710918364815
87302.19130090122,87302.19130090122,0.13188809898647483,0.09589061329531268
87302.19630090123,87302.19630090123,0.13276116063983756,0.09477955262526568
87302.20130090123,87302.20130090123,0.1336260155778674,0.09366405053943282
87302.20630090123,87302.20630090123,0.13448240376465473,0.09254412694206679
87302.21130090124,87302.21130090124,0.1353303341780072,0.09141994557008652
87302.21630090124,87302.21630090124,0.13616976476426954,0.09029163936128153
87302.22130090125,87302.22130090125,0.1370006838842952,0.08915935209924061
87302.22630090125,87302.22630090125,0.13782274724973592,0.630899426784424
87302.23130090126,87302.23130090126,0.13863618413446407,0.08688306886470636
87302.23630090126,87302.23630090126,0.13944058416466848,0.08573929914130998
87302.24130090127,87302.24130090127,0.1402361255508137,0.08459199072078333
87302.24630090127,87302.24630090127,0.5965410608013829,0.08344123971652617
87302.25130090128,87302.25130090128,0.14180002664447736,0.08228709960515038
87302.25630090128,87302.25630090128,0.14256835247994856,0.08112978963723078
87302.26130090129,87302.26130090129,0.1433273256542061,0.6171524041964682
87302.26630090129,87302.26630090129,0.1440768506371256,0.07880584426888514
87302.2713009013,87302.2713009013,0.1448170875679934,0.0776395130115145
87302.2763009013,87302.2763009013,0.14554787245760162,0.07647042602597323
87302.2813009013,87302.2813009013,0.14626908819215587,0.07529868757763374
87302.28630090131,87302.28630090131,0.14698069162063634,0.07412442193080135
87302.29130090131,87302.29130090131,0.14768259857624058,0.07294774363665954
87302.29630090132,87302.29630090132,0.14837464576301598,0.07176874928602563
87302.30130090132,87302.30130090132,0.1490568224135597,0.07058757273033069
87302.30630090133,87302.30630090133,0.1497291959861502,0.0694043597986585
87302.31130090133,87302.31130090133,0.15039164649869446,0.06821921516140016
87302.31630090134,87302.31630090134,0.15104384292365441,0.06703221066936679
87302.32130090134,87302.32130090134,0.15168633158465067,0.06584356899578746
87302.32630090135,87302.32630090135,0.15231840046256617,0.06465330066085334
87302.33130090135,87302.33130090135,0.15294019243176166,0.15114623885483364
87302.33630090136,87302.33630090136,0.15355170935158619,0.062268479242691424
87302.34130090136,87302.34130090136,0.15415296142190418,0.061074181026339214
87302.34630090136,87302.34630090136,0.15474366774729212,0.05987876160318303
87302.35130090137,87302.35130090137,0.15532407433377146,0.058682370432107035
87302.35630090137,87302.35630090137,0.15589381840246716,0.05748509959318874
87302.36130090138,87302.36130090138,0.1564529419981761,0.056287078966132116
87302.36630090138,87302.36630090138,0.15700158020366453,0.05508843883884078
87302.37130090139,87302.37130090139,0.15753937056688835,0.05388928216795775
87302.3763009014,87302.3763009014,0.1580665269767497,0.05268974073449719
87302.3813009014,87302.3813009014,0.15858255976643454,0.05148992451063599
87302.3863009014,87302.3863009014,0.15908816461653105,0.1471100944097275
87302.3913009014,87302.3913009014,0.15958264064087624,0.0509100243006345
87302.39630090141,87302.39630090141,0.16006615236337313,0.052109922366298904
87302.40130090142,87302.40130090142,0.16053878785542983,0.05330961230735387
87302.40630090142,87302.40630090142,0.1610003039780882,0.054508970569518804
87302.41130090143,87302.41130090143,0.16145068467417034,0.055707876543141924
87302.41630090143,87302.41630090143,0.503416898345618,0.0569062103984216
87302.42130090143,87302.42130090143,0.1623179215072891,0.058103852264200055
87302.42630090144,87302.42630090144,0.3196916699520362,0.05930068924824666
87302.43130090144,87302.43130090144,0.16314027466379113,0.060496587207340476
87302.43630090145,87302.43630090145,0.16353454424135644,0.061691444293957856
87302.44130090145,87302.44130090145,0.1639172171136883,0.2869132975717795
87302.44630090146,87302.44630090146,0.16428893137846887,0.2432331343144297
87302.45130090146,87302.45130090146,0.16464899437011848,0.06526851479350582
87302.45630090147,87302.45630090147,0.16499772912268879,0.0664579957864651
87302.46130090147,87302.46130090147,0.1653347511957659,0.06764580095242108
87302.46630090148,87302.46630090148,0.20664866307008256,0.29669885160803716
87302.47130090148,87302.47130090148,0.1659742759274626,0.07001601391216414
87302.47630090149,87302.47630090149,0.16627675041731543,0.07119819326915464
87302.48130090149,87302.48130090149,0.1665674972997097,0.07237823504857614
87302.4863009015,87302.4863009015,0.16684663122580717,0.07355604708929314
87302.4913009015,87302.4913009015,0.16711406163067022,0.07473149995500102
87302.4963009015,87302.4963009015,0.16736985555455167,0.0759044958910266
87302.50130090151,87302.50130090151,0.16761378179132982,0.07707487266792262
87302.50630090151,87302.50630090151,0.16784591801023854,0.07824253391801379
87302.51130090152,87302.51130090152,0.16806640850855548,0.07940740374669174
87302.51630090152,87302.51630090152,0.16827515885380817,0.08056935077584425
87302.52130090153,87302.52130090153,0.16847186677661696,0.0817281855131949
87302.52630090153,87302.52630090153,0.16865681141938152,0.08288386886780234
87302.53130090154,87302.53130090154,0.1688300111657025,0.08403629801199144
87302.53630090154,87302.53630090154,0.16899106118737342,0.22729272676248033
87302.54130090155,87302.54130090155,0.16914051385391854,0.08633076566276936
87302.54630090155,87302.54630090155,0.16927784541754948,0.08747258906313617
87302.55130090156,87302.55130090156,0.16940339480618896,0.08861071111706274
87302.55630090156,87302.55630090156,0.2293500071433071,0.08974494481003434
87302.56130090157,87302.56130090157,0.16961845766177924,0.09087519311452506
87302.56630090157,87302.56630090157,0.16970783268225617,0.09200128192255272
87302.57130090157,87302.57130090157,0.16978575539114993,0.09312335269336763
87302.57630090158,87302.57630090158,0.16985141750312294,0.09424101196042806
87302.58130090158,87302.58130090158,0.16990504836168827,0.09535422953097972
87302.58630090159,87302.58630090159,0.16994681527841113,0.1494898461418686
87302.5913009016,87302.5913009016,0.4532020332500213,0.09756701876568304
87302.5963009016,87302.5963009016,0.16999425104492624,0.0986663300720199
87302.6013009016,87302.6013009016,0.16999994810063873,0.09976076124525614
87302.6063009016,87302.6063009016,0.16999369016823432,0.47239637197755
87302.61130090161,87302.61130090161,0.16997528309268203,0.10193456010528393
87302.61630090162,87302.61630090162,0.16994503253523932,0.10301375757102371
87302.62130090162,87302.62130090162,0.16990276205496632,0.10408764301918152
87302.62630090163,87302.62630090163,0.6650835516117504,0.10515613913256086
87302.63130090163,87302.63130090163,0.1697822517066897,0.10621907972714444
87302.63630090163,87302.63630090163,0.16970388651429003,0.10727635209845332
87302.64130090164,87302.64130090164,0.16961361078420836,0.10832792369550423
87302.64630090164,87302.64630090164,0.16951150415400232,0.10937372598126244
87302.65130090165,87302.65130090165,0.16939740200938594,0.11041356987992433
87302.65630090165,87302.65630090165,0.16927140080963393,0.11144739360387514
87302.66130090166,87302.66130090166,0.16913326184320845,0.11247496345605265
87302.66630090166,87302.66630090166,0.1689833745901974,0.11349637089993575
87302.67130090167,87302.67130090167,0.16882174953880164,0.11451151625914144
87302.67630090167,87302.67630090167,0.16864800278902353,0.11552008136175446
87302.68130090168,87302.68130090168,0.16846254313408623,0.11652217871442225
87302.68630090168,87302.68630090168,0.1682650345643078,0.11751750970392773
87302.69130090169,87302.69130090169,0.16805580984761154,0.24595271935189017
87302.69630090169,87302.69630090169,0.16783482006891504,0.11948796527602215
87302.7013009017,87302.7013009017,0.16760202912192612,0.12046282086251381
87302.7063009017,87302.7063009017,0.16735739674453096,0.41299488678991086
87302.7113009017,87302.7113009017,0.16710113445432298,0.122391262655618
87302.71630090171,87302.71630090171,0.1668330673984976,0.12334464629057357
87302.72130090171,87302.72130090171,0.16655342019558927,0.12429076034088199
87302.72630090172,87302.72630090172,0.16626214590733093,0.12522946445470687
87302.73130090172,87302.73130090172,0.1659590623348962,0.12616052695279165
87302.73630090173,87302.73630090173,0.16564447193676207,0.2958888455531023
87302.74130090173,87302.74130090173,0.1653183987761133,0.1279998812757322
87302.74630090174,87302.74630090174,0.16498075433061868,0.1289079058089201
87302.75130090174,87302.75130090174,0.16463154152947998,0.12980799129520615
87302.75630090175,87302.75630090175,0.16427087442242083,0.1307001012840194
87302.76130090175,87302.76130090175,0.44423907156179654,0.13158423601400318
87302.76630090176,87302.76630090176,0.16351541876515965,0.13246010988699602
87302.77130090176,87302.77130090176,0.1631206250059757,0.13332777551482164
87302.77630090177,87302.77630090177,0.162714538411426,0.13418712277100173
87302.78130090177,87302.78130090177,0.16229706570072075,0.13503796504446477
87302.78630090177,87302.78630090177,0.16186848477634666,0.13588039504004892
87302.79130090178,87302.79130090178,0.16142875327125877,0.13671426579650664
87302.79630090178,87302.79630090178,0.16097780714150597,0.13753941003024353
87302.80130090179,87302.80130090179,0.16051565685694627,0.1383557152170784
87302.8063009018,87302.8063009018,0.16004264194827586,0.13916333400220773
87302.8113009018,87302.8113009018,0.1595584361534013,0.13996188465237588
87302.8163009018,87302.8163009018,0.15906346376961142,0.14075159448666197
87302.8213009018,87302.8213009018,0.15855745086666578,0.1415321177392725
87302.82630090181,87302.82630090181,0.15804065401648312,0.142303547929373
87302.83130090182,87302.83130090182,0.15751312921777708,0.14306581395231513
87302.83630090182,87302.83630090182,0.15697469394372715,0.14381863588299063
87302.84130090183,87302.84130090183,0.1564255882083245,0.1445620985689843
87302.84630090183,87302.84630090183,0.15586590881507056,0.1452961662764739
87302.85130090184,87302.85130090184,0.1552955847669497,0.14602065172928386
87302.85630090184,87302.85630090184,0.37342288737326174,0.1467355476858215
87302.86130090184,87302.86130090184,0.15412347717887168,0.14744080998777134
87302.86630090185,87302.86630090185,0.15352179215048914,0.14813632425912984
87302.87130090185,87302.87130090185,0.4696135679087521,0.14882196549454668
87302.87630090186,87302.87630090186,0.1522872053590758,0.14949763020824988
87302.88130090186,87302.88130090186,0.15165479522335695,0.15016364259051532
87302.88630090187,87302.88630090187,0.5637858334204894,0.15081945877487138
87302.89130090187,87302.89130090187,0.15035913057585937,0.1514651490171366
87302.89630090188,87302.89630090188,0.36590223007567757,0.15210080536255957
87302.90130090188,87302.90130090188,0.1490235453799077,0.1527262971033728
87302.90630090189,87302.90630090189,0.1483407611391118,0.15334138666254876
87302.91130090189,87302.91130090189,0.14764807231422716,0.15394606631823013
87302.9163009019,87302.9163009019,0.1469457545323211,0.1545404950834232
87302.9213009019,87302.9213009019,0.20081591554644615,0.15512445721846796
87302.9263009019,87302.9263009019,0.14551212216726253,0.15569795228208583
87302.93130090191,87302.93130090191,0.14478084030077268,0.1562607415199413
87302.93630090191,87302.93630090191,0.144040152538845,0.15681298491982185
87302.94130090192,87302.94130090192,0.14328996256498613,0.1573544344924593
87302.94630090192,87302.94630090192,0.14253055822826688,0.5411877899535698
87302.95130090193,87302.95130090193,0.14176182259834544,0.15840524469289463
87302.95630090193,87302.95630090193,0.14098409249581043,0.15891458520687712
87302.96130090194,87302.96130090194,0.14019698517502965,0.15941270049752723
87302.96630090194,87302.96630090194,0.13940109175828788,0.15990015626391246
87302.97130090195,87302.97130090195,0.13859619001972737,0.16037654033078477
87302.97630090195,87302.97630090195,0.13778230822241055,0.16084173503830515
87302.98130090196,87302.98130090196,0.1369598272203611,0.1612960715567716
87302.98630090196,87302.98630090196,0.1361285660978674,0.1617391719001828
87302.99130090197,87302.99130090197,0.13528870189722506,0.1621711107618606
87302.99630090197,87302.99630090197,0.13444028986255682,0.16259180746873572
87303.00130090197,87303.00130090197,0.14019693027725882,0.1630013988843019
87303.00630090198,87303.00630090198,0.13271834271132393,0.1633995493432823
87303.01130090198,87303.01130090198,0.13184480504097265,0.16378627565886197
87303.01630090199,87303.01630090199,0.13096320718621046,0.18868315687884246
87303.021300902,87303.021300902,0.13007342308532338,0.5839165925327101
87303.026300902,87303.026300902,0.12917563113938446,0.1648782966323173
87303.031300902,87303.031300902,0.12827002821880593,0.1652194872400961
87303.03630090201,87303.03630090201,0.12735647612895187,0.16554897653935216
87303.04130090201,87303.04130090201,0.12643522472328686,0.1658669639356319
87303.04630090202,87303.04630090202,0.12550630456204837,0.1661733250427
87303.05130090202,87303.05130090202,0.12456992238836183,0.1664682054433641
87303.05630090203,87303.05630090203,0.12362607210099295,0.166751423686095
87303.06130090203,87303.06130090203,0.12267481941974864,0.16702290457105212
87303.06630090204,87303.06630090204,0.12171624835388524,0.16728259986395
87303.07130090204,87303.07130090204,0.12075055304863833,0.16753064267217788
87303.07630090204,87303.07630090204,0.11977783843523919,0.16776702649823833
87303.08130090205,87303.08130090205,0.11879804768646267,0.16799146766154296
87303.08630090205,87303.08630090205,0.11781145824546471,0.47954985816596185
87303.09130090206,87303.09130090206,0.11681808731608377,0.16840520973962225
87303.09630090206,87303.09630090206,0.3499902383710264,0.1685941748223556
87303.10130090207,87303.10130090207,0.11481127211307669,0.16877136390500527
87303.10630090207,87303.10630090207,0.11379816590221127,0.16893676795196294
87303.11130090208,87303.11130090208,0.11277865557137086,0.16909023494233344
87303.11630090208,87303.11630090208,0.2206320114992515,0.16923170299161897
87303.12130090209,87303.12130090209,0.11072076175066442,0.16936115159336462
87303.12630090209,87303.12630090209,0.10968275569626518,0.1694789083039673
87303.1313009021,87303.1313009021,0.10863880819394202,0.16958477487382229
87303.1363009021,87303.1363009021,0.1075888901461113,0.16967846700829395
87303.1413009021,87303.1413009021,0.10653317459741497,0.1697601071381189
87303.14630090211,87303.14630090211,0.10547189501617843,0.1698299576704326
87303.15130090211,87303.15130090211,0.10440508248109949,0.1698878583811881
87303.15630090212,87303.15630090212,0.16081880311819408,0.1699336894371623
87303.16130090212,87303.16130090212,0.10225516718640185,0.16996752292763975
87303.16630090213,87303.16630090213,0.10117236587238125,0.1699894743680083
87303.17130090213,87303.17130090213,0.10008438900739586,0.16999929131305536
87303.17630090214,87303.17630090214,0.3688620206077634,0.16999719840693234
87303.18130090214,87303.18130090214,0.09789355281391712,0.16998300480231082
87303.18630090215,87303.18630090215,0.09679089541576266,0.16995686270809507
87303.19130090215,87303.19130090215,0.09568356831116327,0.16991874912715732
87303.19630090216,87303.19630090216,0.5867925545879583,0.16986853773538232
87303.20130090216,87303.20130090216,0.09345528717241043,0.5828248076966998
87303.20630090217,87303.20630090217,0.2155078450276884,0.16973238014299893
87303.21130090217,87303.21130090217,0.09120962515166381,0.1696462567291918
87303.21630090218,87303.21630090218,0.09008056222149885,0.16954821727217873
87303.22130090218,87303.22130090218,0.36266938696980966,0.16943825389077846
87303.22630090218,87303.22630090218,0.08781054542344811,0.169316346463668
87303.23130090219,87303.23130090219,0.08666979195628793,0.1691824559977498
87303.2363009022,87303.2363009022,0.12180343745613134,0.41702308098725055
87303.2413009022,87303.2413009022,0.08437740646639745,0.1688789577631863
87303.2463009022,87303.2463009022,0.08322601801777395,0.16870943187029952
87303.25130090221,87303.25130090221,0.08207127988741887,0.16852793921817932
87303.25630090221,87303.25630090221,0.08091330100289525,0.1683344613692629
87303.26130090222,87303.26130090222,0.07975232348792223,0.4077268840926871
87303.26630090222,87303.26630090222,0.07858834596254209,0.16791264670871925
87303.27130090223,87303.27130090223,0.07742147118829311,0.2631723629886771
87303.27630090223,87303.27630090223,0.07625189430114968,0.1674434367493234
87303.28130090224,87303.28130090224,0.07507965258954634,0.16719111317066307
87303.28630090224,87303.28630090224,0.07390491512965672,0.45471011107510156
87303.29130090224,87303.29130090224,0.07272778278241357,0.16665141606425868
87303.29630090225,87303.29630090225,0.07154839757298884,0.166364146412265
87303.30130090225,87303.30130090225,0.07036684402950413,0.16606516952862485
87303.30630090226,87303.30630090226,0.06918327647226542,0.16575472080965165
87303.31130090226,87303.31130090226,0.06799775229078422,0.1654324655888604
87303.31630090227,87303.31630090227,0.06681044880705997,0.16509879280233256
87303.32130090227,87303.32130090227,0.06562146915098749,0.1647536474910822
87303.32630090228,87303.32630090228,0.06443091976514173,0.16439697366364556
87303.33130090228,87303.33130090228,0.06323891660582011,0.1640287690365315
87303.33630090229,87303.33630090229,0.06204561673208382,0.16364939913555948
87303.34130090229,87303.34130090229,0.06085109686483204,0.1632585342575314
87303.3463009023,87303.3463009023,0.05965548264608277,0.16285623764752646
87303.3513009023,87303.3513009023,0.05845890956288802,0.16244272056277145
87303.3563009023,87303.3563009023,0.05726150126331296,0.16201811374572056
87303.36130090231,87303.36130090231,0.05606335084080046,0.16158206081775683
87303.36630090231,87303.36630090231,0.05486460217191495,0.16113497810937358
87303.37130090232,87303.37130090232,0.05366536858301685,0.16067683057982265
87303.37630090232,87303.37630090232,0.052465764196032307,0.1602074868524007
87303.38130090233,87303.38130090233,0.05126591545452912,0.15972718389096596
87303.38630090233,87303.38630090233,0.05006594028809098,0.15923599167251937
87303.39130090234,87303.39130090234,0.05113404166971269,0.1587337440910125
87303.39630090234,87303.39630090234,0.052333911247074504,0.15822072427117276
87303.40130090235,87303.40130090235,0.05353354676369068,0.15769683652749203
87303.40630090235,87303.40630090235,0.05473282788835728,0.15716214987052257
87303.41130090236,87303.41130090236,0.05593164020497766,0.15661684613971197
87303.41630090236,87303.41630090236,0.0571298519907238,0.15606074268154663
87303.42130090237,87303.42130090237,0.05832735345165269,0.1554940932828263
87303.42630090237,87303.42630090237,0.059524029150621396,0.15491696945261718
87303.43130090238,87303.43130090238,0.06071973868339633,0.1543292059638991
87303.43630090238,87303.43630090238,0.06191438298485828,0.1537310850492855
87303.44130090238,87303.44130090238,0.06310784341260897,0.15312265220861032
87303.44630090239,87303.44630090239,0.06429997899568102,0.15250379699321592
87303.4513009024,87303.4513009024,0.06549069682888986,0.15187478135027352
87303.4563009024,87303.4563009024,0.06667986327520985,0.15123555931168814
87303.4613009024,87303.4613009024,0.06786736355819606,0.15058622144329528
87303.46630090241,87303.46630090241,0.06905306890389827,0.14992677977497237
87303.47130090241,87303.47130090241,0.07023686562581456,0.14925733135272648
87303.47630090242,87303.47630090242,0.07141864373052892,0.5523452919911058
87303.48130090242,87303.48130090242,0.07259830097772806,0.2177422295488921
87303.48630090243,87303.48630090243,0.07377566071072415,0.1471898102807518
87303.49130090243,87303.49130090243,0.07495067992954878,0.14648117897282162
87303.49630090244,87303.49630090244,0.07612318801207615,0.14576283372749438
87303.50130090244,87303.50130090244,0.07729305181599082,0.14503480026910612
87303.50630090245,87303.50630090245,0.07846021979110405,0.37951228303146634
87303.51130090245,87303.51130090245,0.07962456853401491,0.2080115969588216
87303.51630090245,87303.51630090245,0.08078590319739813,0.1427943415418932
87303.52130090246,87303.52130090246,0.08194419375778929,0.1420288855612531
87303.52630090246,87303.52630090246,0.08309927970209599,0.1412541960800909
87303.53130090247,87303.53130090247,0.08425103802997955,0.14047033333831516
87303.53630090247,87303.53630090247,0.0853994209447628,0.13967755290307532
87303.54130090248,87303.54130090248,0.08654420365533128,0.13887565122531684
87303.54630090248,87303.54630090248,0.08768536137920599,0.8009543042861802
87303.55130090249,87303.55130090249,0.08882273514235034,0.1372453787568823
87303.55630090249,87303.55630090249,0.0899562700548283,0.13641719257732182
87303.5613009025,87303.5613009025,0.17010040903042328,0.1355802226686599
87303.5663009025,87303.5663009025,0.09221113921748417,0.1347347619694051
87303.5713009025,87303.5713009025,0.09333233074684585,0.3994864043444697
87303.57630090251,87303.57630090251,0.09444921254230106,0.1330186141557048
87303.58130090252,87303.58130090252,0.0955615650667157,0.13214790856030026
87303.58630090252,87303.58630090252,0.0966694008580734,0.13126906252656478
87303.59130090252,87303.59130090252,0.18225590970228633,0.1303821665369337
87303.59630090253,87303.59630090253,0.0988710149037544,0.12948716880966812
87303.60130090253,87303.60130090253,0.09996443628415365,0.12858407820367762
87303.60630090254,87303.60630090254,0.10105304094594528,0.1276734118254451
87303.61130090254,87303.61130090254,0.10213643573303406,0.5607554526168376
87303.61630090255,87303.61630090255,0.1032146344041298,0.1258285703136947
87303.62130090255,87303.62130090255,0.10428753294092606,0.124894771306431
87303.62630090256,87303.62630090256,0.1053549857475897,0.123953458495098
87303.63130090256,87303.63130090256,0.1064168490472455,0.12300467985223798
87303.63630090257,87303.63630090257,0.10747308847748854,0.581794008676645
87303.64130090257,87303.64130090257,0.10852367974180901,0.12108549213234517
87303.64630090258,87303.64630090258,0.10956834837116088,0.12011516102054459
87303.65130090258,87303.65130090258,0.11060699885560454,0.1191377485252271
87303.65630090258,87303.65630090258,0.2702206626228783,0.1181534942925462
87303.66130090259,87303.66130090259,0.11266621463278818,0.2934812875507638
87303.6663009026,87303.6663009026,0.11368644369609704,0.1482184871059632
87303.6713009026,87303.6713009026,0.11470031676859051,0.11516034556161926
87303.6763009026,87303.6763009026,0.11570766302140134,0.1141493897466922
87303.68130090261,87303.68130090261,0.11670845190526247,0.11313203372150932
87303.68630090261,87303.68630090261,0.11770255782401526,0.11210835491999316
87303.69130090262,87303.69130090262,0.11869002233911767,0.11107858221871747
87303.69630090262,87303.69630090262,0.11967052875126728,0.11004261957711525
87303.70130090263,87303.70130090263,0.12064394115995218,0.10900054655828297
87303.70630090263,87303.70630090263,0.1216104691881385,0.2946209535500951
87303.71130090264,87303.71130090264,0.12256980444528835,0.10689908147241808
87303.71630090264,87303.71630090264,0.12352189108109021,0.10583975286490288
87303.72130090265,87303.72130090265,0.12446652852691846,0.10477476716032107
87303.72630090265,87303.72630090265,0.12540381510455784,0.5819477607079091
87303.73130090265,87303.73130090265,0.12633350691249162,0.10262857426311073
87303.73630090266,87303.73630090266,0.12725560883561032,0.10154754030651292
87303.74130090266,87303.74130090266,0.12816994374178423,0.10046132383005035
87303.74630090267,87303.74630090267,0.12907653804321986,0.12552257016452756
87303.75130090267,87303.75130090267,0.12997510840012597,0.09827388638626725
87303.75630090268,87303.75630090268,0.13086577326848156,0.0971728918944535
87303.76130090268,87303.76130090268,0.13174833695167262,0.09606717072560944
87303.76630090269,87303.76630090269,0.1326226137346286,0.09495678119203448
87303.77130090269,87303.77130090269,0.13348884101963568,0.09384201118308934
87303.7763009027,87303.7763009027,0.1343465123591993,0.09272274779226924
87303.7813009027,87303.7813009027,0.13519587787025142,0.09159927831064044
87303.7863009027,87303.7863009027,0.13603676240263474,0.09047166587609254
87303.79130090271,87303.79130090271,0.13686890619954767,0.08933994145750711
87303.79630090272,87303.79630090272,0.13769239532812844,0.08820429907444342
87303.80130090272,87303.80130090272,0.13850718577598256,0.08706486681165926
87303.80630090272,87303.80630090272,0.13931304943427775,0.08592169621349122
87303.81130090273,87303.81130090273,0.29866767032982566,0.0847749374593726
87303.81630090273,87303.81630090273,0.14089802063953877,0.08362473968565116
87303.82130090274,87303.82130090274,0.14167693529818104,0.08247116777531048
87303.82630090274,87303.82630090274,0.14244654903433696,0.08131430211305608
87303.83130090275,87303.83130090275,0.14320687858971665,0.08015429480387919
87303.83630090275,87303.83630090275,0.14395807396519517,0.07899133316279026
87303.84130090276,87303.84130090276,0.14469991366106422,0.07782548256437924
87303.84630090276,87303.84630090276,0.1454321159696036,0.0766567994524474
87303.85130090277,87303.85130090277,0.14615493364769613,0.07548549470918142
87303.85630090277,87303.85630090277,0.14686798318154073,0.07431160053606607
87303.86130090278,87303.86130090278,0.1475713886455084,0.07313528683430139
87303.86630090278,87303.86630090278,0.1482650797088227,0.07195666965542673
87303.87130090279,87303.87130090279,0.14894888323448435,0.07077584325431403
87303.87630090279,87303.87630090279,0.14962284696370992,0.06959295115514336
87303.8813009028,87303.8813009028,0.15028680509452788,0.06840809117132639
87303.8863009028,87303.8863009028,0.15094079565473084,0.06722140167838045
87303.8913009028,87303.8913009028,0.1515846046446467,0.06603297507543453
87303.89630090281,87303.89630090281,0.15221832163529,0.06484295604469917
87303.90130090281,87303.90130090281,0.15284177880469196,0.06365144731759138
87303.90630090282,87303.90630090282,0.15345502869153654,0.0624585832483127
87303.91130090282,87303.91130090282,0.15405776605805377,0.06126445382850737
87303.91630090283,87303.91630090283,0.1546503947389102,0.060069229425461924
87303.92130090283,87303.92130090283,0.15523226991208894,0.05887296921550215
87303.92630090284,87303.92630090284,0.15580371151547395,0.057675830824771
87303.93130090284,87303.93130090284,0.15636460256963255,0.05647792665104497
87303.93630090285,87303.93630090285,0.15691487903683843,0.055279375840583546
87303.94130090285,87303.94130090285,0.15745436604097848,0.05408029231556282
87303.94630090286,87303.94630090286,0.15798316723103537,0.05288080362121627
87303.95130090286,87303.95130090286,0.15850122206603354,0.051681027772353436
87303.95630090286,87303.95630090286,0.15900840777717787,0.050481082719419944
87303.96130090287,87303.96130090287,0.15950463421047678,0.05071891087966077
87303.96630090287,87303.96630090287,0.15998986588311784,0.05191883121083184
87303.97130090288,87303.97130090288,0.16046420436648087,0.053118561177266224
87303.97630090288,87303.97630090288,0.16092758341334013,0.05431798332171597
87303.98130090289,87303.98130090289,0.16137963161186675,0.055516964405313736
87303.98630090289,87303.98630090289,0.16182060003431525,0.488221375938382
87303.9913009029,87303.9913009029,0.16225053765841355,0.05791316335448897
87303.9963009029,87303.9963009029,0.16266919409683386,0.05911013781326989
87304.0013009029,87304.0013009029,0.16307644703044707,0.06030618955263462
87304.00630090291,87304.00630090291,0.16347257735615658,0.06150122736450401
87304.01130090292,87304.01130090292,0.16385733058383753,0.0626951133876059
87304.01630090292,87304.01630090292,0.1962399638536173,0.06388772410239141
87304.02130090292,87304.02130090292,0.16459245043046805,0.06507893566273334
87304.02630090293,87304.02630090293,0.16494284651523577,0.06626864434094407
87304.03130090293,87304.03130090293,0.16528170042591167,0.06745671830375796
87304.03630090294,87304.03630090294,0.1656093197467763,0.06864309200803843
87304.04130090294,87304.04130090294,0.16592506131065546,0.06982755143106348
87304.04630090295,87304.04630090295,0.1662292916089535,0.07101004083225813
87304.05130090295,87304.05130090295,0.40718412775938273,0.07219044188206544
87304.05630090296,87304.05630090296,0.16680301972677658,0.07336863009564092
87304.06130090296,87304.06130090296,0.16707224193001677,0.07454445163851284
87304.06630090297,87304.06630090297,0.16732979122455077,0.07571782470496217
87304.07130090297,87304.07130090297,0.16757568883760435,0.07688864383394282
87304.07630090298,87304.07630090298,0.16780988984941728,0.0780567892385554
87304.08130090298,87304.08130090298,0.16803210431318572,0.07922207988171921
87304.08630090299,87304.08630090299,0.16824261102034757,0.08038447095747835
87304.09130090299,87304.09130090299,0.16844132523947855,0.08154383177037733
87304.096300903,87304.096300903,0.1686280663338595,0.08270000301945031
87304.101300903,87304.101300903,0.16880314258527088,0.08385295853656449
87304.106300903,87304.106300903,0.1689663387689501,0.08500253059823411
87304.11130090301,87304.11130090301,0.169117500432563,0.08614856207965897
87304.11630090301,87304.11630090301,0.16925686496472253,0.08729101371614914
87304.12130090302,87304.12130090302,0.4430873355305401,0.7245856914048301
87304.12630090302,87304.12630090302,0.16949960830637997,0.0895645544957465
87304.13130090303,87304.13130090303,0.1696030407477465,0.09069543926381485
87304.13630090303,87304.13630090303,0.16969462007786723,0.0918222908075221
87304.14130090304,87304.14130090304,0.16977420875601135,0.09294495367387434
87304.14630090304,87304.14630090304,0.9186422589870445,0.09406331837748644
87304.15130090305,87304.15130090305,0.16989737810633368,0.0951772596751366
87304.15630090305,87304.15630090305,0.16994085474200815,0.09628664300704742
87304.16130090306,87304.16130090306,0.16997263835159798,0.09739151437226283
87304.16630090306,87304.16630090306,0.1699921583865534,0.09849154194927774
87304.17130090306,87304.17130090306,0.16999974874265872,0.09958674752165309
87304.17630090307,87304.17630090307,0.1699954446851937,0.10067703844488789
87304.18130090307,87304.18130090307,0.16997895289123977,0.10176218198490446
87304.18630090308,87304.18630090308,0.16995060438468446,0.10284220957613661
87304.19130090308,87304.19130090308,0.16991033376388906,0.10391698634872336
87304.19630090309,87304.19630090309,0.1698578769304525,0.1049862838017111
87304.20130090309,87304.20130090309,0.16979349450042305,0.106050109193709
87304.2063009031,87304.2063009031,0.16971719725153767,0.10710835990805016
87304.2113009031,87304.2113009031,0.1696289371909272,0.10816090458197386
87304.2163009031,87304.2163009031,0.1983024519935987,0.10920762300349028
87304.22130090311,87304.22130090311,0.16941635694313859,0.11024835207744936
87304.22630090312,87304.22630090312,0.16929222970030045,0.11128313102210008
87304.23130090312,87304.23130090312,0.16915617142973036,0.11231178115551298
87304.23630090313,87304.23630090313,0.16900817922671876,0.11333419114698404
87304.24130090313,87304.24130090313,0.6179382596524186,0.11435024534634941
87304.24630090313,87304.24630090313,0.16867627340919236,0.11535978042898452
87304.25130090314,87304.25130090314,0.16849257923319141,0.11636285759577668
87304.25630090314,87304.25630090314,0.25374699191882644,0.11735944522026155
87304.26130090315,87304.26130090315,0.16808998976492562,0.11834918962536933
87304.26630090315,87304.26630090315,0.1678705900920318,0.5418567197603958
87304.27130090316,87304.27130090316,0.16763980300505243,0.12030797609985562
87304.27630090316,87304.27630090316,0.16739716740986257,0.12127694047599195
87304.28130090317,87304.28130090317,0.16714267954785514,0.12223870894702282
87304.28630090317,87304.28630090317,0.166876612821131,0.12319333737233931
87304.29130090318,87304.29130090318,0.16659877188559954,0.1825197365981168
87304.29630090318,87304.29630090318,0.48903263421321685,0.12508038716632108
87304.30130090319,87304.30130090319,0.16600804935542812,0.12601270912823903
87304.30630090319,87304.30630090319,0.184884487033475,0.16449849078962409
87304.3113009032,87304.3113009032,0.16537108475174114,0.12785452511728468
87304.3163009032,87304.3163009032,0.1650352400494151,0.12876377411646533
87304.3213009032,87304.3213009032,0.16468798016391462,0.12966520787598657
87304.32630090321,87304.32630090321,0.16432904807991036,0.13055853340251627
87304.33130090321,87304.33130090321,0.16395881484378155,0.1314438948477932
87304.33630090322,87304.33630090322,0.33982004127877774,0.1323211015705265
87304.34130090322,87304.34130090322,0.16318418807314794,0.1331900893023588
87304.34630090323,87304.34630090323,0.16277990933879796,0.13405077538398794
87304.35130090323,87304.35130090323,0.16236425874716073,0.13490298607998805
87304.35630090324,87304.35630090324,0.16193746797929776,0.13574677915444888
87304.36130090324,87304.36130090324,0.1614994995001416,0.13658201055304256
87304.36630090325,87304.36630090325,0.16105016932804953,0.13740841817943308
87304.37130090325,87304.37130090325,0.1605900046451245,0.1382262976992869
87304.37630090326,87304.37630090326,0.16011861853615775,0.36083909169047346
87304.38130090326,87304.38130090326,0.678308460300348,0.13983533495929382
87304.38630090326,87304.38630090326,0.1591429666950608,0.1406263767780824
87304.39130090327,87304.39130090327,0.15863888389687736,0.1414085150948277
87304.39630090327,87304.39630090327,0.15812369662616063,0.2782806441822794
87304.40130090328,87304.40130090328,0.1575978536305643,0.1429450212502299
87304.40630090328,87304.40630090328,0.15706106279176113,0.14369927398151355
87304.41130090329,87304.41130090329,0.15651374666124795,0.14444431427407745
87304.41630090329,87304.41630090329,0.1559557048059927,0.14517984439580595
87304.4213009033,87304.4213009033,0.3846539473361671,0.1459058608393632
87304.4263009033,87304.4263009033,0.15480801182267012,0.14662238772985434
87304.4313009033,87304.4313009033,0.15421845287575228,0.1473952944275674
87304.43630090331,87304.43630090331,0.1536183562682796,0.18067673347046254
87304.44130090332,87304.44130090332,0.1530079800776996,0.14871353322036132
87304.44630090332,87304.44630090332,0.15238718236925813,0.14939083070548423
87304.45130090333,87304.45130090333,0.15175607573527772,0.15005811804377286
87304.45630090333,87304.45630090333,0.3965822776571074,0.15071570406848622
87304.46130090333,87304.46130090333,0.15046385510607424,0.15136305758899168
87304.46630090334,87304.46630090334,0.1498026176701874,0.15200033252264894
87304.47130090334,87304.47130090334,0.1491313046324733,0.15262731030030352
87304.47630090335,87304.47630090335,0.20546735260691223,0.15324409604918163
87304.48130090335,87304.48130090335,0.1477590174515386,0.15385042302918406
87304.48630090336,87304.48630090336,0.14705829928178965,0.15444656371751375
87304.49130090336,87304.49130090336,0.14634782185046466,0.15503220393613126
87304.49630090337,87304.49630090337,0.14562759386311158,0.15560721396642546
87304.50130090337,87304.50130090337,0.14489784861978824,0.1561717117298105
87304.50630090338,87304.50630090338,0.14415874153728445,0.45901259953630086
87304.51130090338,87304.51130090338,0.21029255435404834,0.15726900170747676
87304.51630090339,87304.51630090339,0.1426521399864848,0.3428375043722871
87304.52130090339,87304.52130090339,0.14188493434560445,0.15832323078248522
87304.5263009034,87304.5263009034,0.14110856564795468,0.15883418879938033
87304.5313009034,87304.5313009034,0.14032302349190134,0.1593341887014507
87304.5363009034,87304.5363009034,0.13952839125684743,0.15982318359142322
87304.54130090341,87304.54130090341,0.138725009953618,0.16030144653023465
87304.54630090341,87304.54630090341,0.13791260925683635,0.16076849827847048
87304.55130090342,87304.55130090342,0.13709137638769328,0.1612244201628804
87304.55630090342,87304.55630090342,0.1362615384658289,0.16166935200933538
87304.56130090343,87304.56130090343,0.13542299868954916,0.16210301889833126
87304.56630090343,87304.56630090343,0.13457597164926166,0.16252554718322634
87304.57130090344,87304.57130090344,0.1337204633859976,0.16293679150458598
87304.57630090344,87304.57630090344,0.13285668443224397,0.16333688059582266
87304.58130090345,87304.58130090345,0.13198449866404008,0.16372547140721186
87304.58630090345,87304.58630090345,0.13110408559067468,0.16410264809771244
87304.59130090346,87304.59130090346,0.1302156362670356,0.16446851819081232
87304.59630090346,87304.59630090346,0.1293192252221767,0.16482302860326645
87304.60130090347,87304.60130090347,0.12841475118766538,0.1651658673948843
87304.60630090347,87304.60630090347,0.12750247034709414,0.1654972391656045
87304.61130090347,87304.61130090347,0.126582487310629,0.16581713292085737
87304.61630090348,87304.61630090348,0.17027679104818397,0.1661254369797736
87304.62130090348,87304.62130090348,0.12471954476993226,0.5702372666506299
87304.62630090349,87304.62630090349,0.12377687423137176,0.1667070730370815
87304.6313009035,87304.6313009035,0.12282679362379426,0.16698042385813966
87304.6363009035,87304.6363009035,0.12186944650797538,0.1672421034088615
87304.6413009035,87304.6413009035,0.12090483170151788,0.4801194587457739
87304.6463009035,87304.6463009035,0.1199332226210077,0.2233200713473533
87304.65130090351,87304.65130090351,0.11895442046955113,0.1679562774052567
87304.65630090352,87304.65630090352,0.11796908338858392,0.1681712189277009
87304.66130090352,87304.66130090352,0.11697670821054973,0.16837392789892872
87304.66630090353,87304.66630090353,0.11597766346153113,0.1685648475951656
87304.67130090353,87304.67130090353,0.11497209935307443,0.1687440528643838
87304.67630090353,87304.67630090353,0.567005828845299,0.168911291242423
87304.68130090354,87304.68130090354,0.11294140100760122,0.16906649542076616
87304.68630090354,87304.68630090354,0.1119166180296398,0.16920997397887363
87304.69130090355,87304.69130090355,0.11088564442279543,0.18318800177579625
87304.69630090355,87304.69630090355,0.23742361558210828,0.16946102913195368
87304.70130090356,87304.70130090356,0.10880544239454498,0.16956866209073113
87304.70630090356,87304.70630090356,0.10775649216040831,0.16966434316554813
87304.71130090357,87304.71130090357,0.1067017877287226,0.16974810356523584
87304.71630090357,87304.71630090357,0.10564133862256696,0.1698197311518866
87304.72130090358,87304.72130090358,0.10457534786034198,0.1698794223718314
87304.72630090358,87304.72630090358,0.1035039411754205,0.33604777684067993
87304.73130090359,87304.73130090359,0.10242715635372847,0.16996295676620343
87304.73630090359,87304.73630090359,0.10134514440895574,0.16998673622872104
87304.7413009036,87304.7413009036,0.100258005459676,0.16999853506047527
87304.7463009036,87304.7463009036,0.09916579420744824,0.16999822235458018
87304.7513009036,87304.7513009036,0.29962827704214534,0.16998598585006025
87304.75630090361,87304.75630090361,0.09696682850595041,0.16996183479216936
87304.76130090361,87304.76130090361,0.09586023477005164,0.1699256202611975
87304.76630090362,87304.76630090362,0.09474905148199557,0.16987740417468733
87304.77130090362,87304.77130090362,0.09363337561536385,0.16981715195504388
87304.77630090363,87304.77630090363,0.09251334202783634,0.43531846396897705
87304.78130090363,87304.78130090363,0.09138906887037694,0.16966076965148838
87304.78630090364,87304.78630090364,0.09026069330729189,0.16956474949465697
87304.79130090364,87304.79130090364,0.08912825209128371,0.16945665854954878
87304.79630090365,87304.79630090365,0.08799187540601103,0.16933655028731537
87304.80130090365,87304.80130090365,0.08685173592949344,0.16920462154872512
87304.80630090366,87304.80630090366,0.08570790617337858,0.16906075787021765
87304.81130090366,87304.81130090366,0.08456048907844345,0.27204112676598735
87304.81630090367,87304.81630090367,0.08340958747404281,0.3077329962239652
87304.82130090367,87304.82130090367,0.08225543599602371,0.1685577452348362
87304.82630090367,87304.82630090367,0.2738079380522115,0.36561331379521045
87304.83130090368,87304.83130090368,0.07993745294597135,0.16816303317568826
87304.83630090368,87304.83630090368,0.07877390866045124,0.31208791661588675
87304.84130090369,87304.84130090369,0.07760750009659469,0.4816768475557359
87304.8463009037,87304.8463009037,0.0764383561078788,0.16748255648724047
87304.8513009037,87304.8513009037,0.07526650400980539,0.1672320076745932
87304.8563009037,87304.8563009037,0.07409217779631987,0.31320550750065856
87304.8613009037,87304.8613009037,0.07291542139795702,0.16669614677979908
87304.86630090371,87304.86630090371,0.07173639259338738,0.826833338523707
87304.87130090372,87304.87130090372,0.07055517241438951,0.1661136136866559
87304.87630090372,87304.87630090372,0.06937189128946349,0.165804834072052
87304.88130090373,87304.88130090373,0.06818669541563775,0.16548460896932643
87304.88630090373,87304.88630090373,0.06699966861630385,0.16515276241136786
87304.89130090374,87304.89130090374,0.06581093946067382,0.16480938300369377
87304.89630090374,87304.89630090374,0.0646206247708215,0.1644544867676441
87304.90130090374,87304.90130090374,0.063428837374979,0.2999148538371248
87304.90630090375,87304.90630090375,0.06223575046867887,0.16371057047162876
87304.91130090375,87304.91130090375,0.061041406801726754,0.16332143124993787
87304.91630090376,87304.91630090376,0.05984597427350132,0.16292111689858624
87304.92130090376,87304.92130090376,0.05864954101519493,0.16250932729163198
87304.92630090377,87304.92630090377,0.057452258850207605,0.16208649535742795
87304.93130090377,87304.93130090377,0.05625421667156021,0.49885924610458854
87304.93630090378,87304.93630090378,0.055055555926636454,0.1612069123108957
87304.94130090378,87304.94130090378,0.053856390503575,0.287251718569996
87304.94630090379,87304.94630090379,0.05265683920850136,0.16028299697585913
87304.95130090379,87304.95130090379,0.05145702208040149,0.15980449498784602
87304.9563009038,87304.9563009038,0.05025705808989431,0.1593149576890767
87304.9613009038,87304.9613009038,0.05094293167586217,0.1588145350328077
87304.9663009038,87304.9663009038,0.48175187487481685,0.1583031536986066
87304.97130090381,87304.97130090381,0.053342507639926276,0.1577810050598871
87304.97630090381,87304.97630090381,0.05454185527426462,0.15724808427288184
87304.98130090382,87304.98130090382,0.05574074798005028,0.15670441220191428
87304.98630090382,87304.98630090382,0.05693906066431802,0.15614998258834648
87304.99130090383,87304.99130090383,0.5779246614303861,0.15558505366690317
87304.99630090383,87304.99630090383,0.05933350100617984,0.15500958809648233
87305.00130090384,87305.00130090384,0.060529367854792016,0.1544234683989264
87305.00630090384,87305.00630090384,0.06172420117161826,0.15382709905772973
87305.01130090385,87305.01130090385,0.0629178516467786,0.1532202488278247
87305.01630090385,87305.01630090385,0.06411020593887068,0.152603046090989
87305.02130090386,87305.02130090386,0.06530115471290449,0.15197562628795644
87305.02630090386,87305.02630090386,0.06649059179475758,0.48732552996880085
87305.03130090387,87305.03130090387,0.06767834915086765,0.40012074078460264
87305.03630090387,87305.03630090387,0.06886436141703048,0.15003252609985238
87305.04130090387,87305.04130090387,0.070048470642405,0.7794158524574275
87305.04630090388,87305.04630090388,0.07123057487075123,0.14868687485186582
87305.05130090388,87305.05130090388,0.07241056259356975,0.14799924574670742
87305.05630090389,87305.05630090389,0.07358832994524375,0.3807625755970135
87305.0613009039,87305.0613009039,0.07476369740195707,0.14659466020101697
87305.0663009039,87305.0663009039,0.20829285961527405,0.14587783817043737
87305.0713009039,87305.0713009039,0.07710694262156724,0.14515149159207308
87305.07630090391,87305.07630090391,0.44778513418965127,0.3408051202913419
87305.08130090391,87305.08130090391,0.36295720282963617,0.14367010906083147
87305.08630090392,87305.08630090392,0.08060115685652483,0.14291544545548626
87305.09130090392,87305.09130090392,0.08175992510871745,0.1421514018118095
87305.09630090393,87305.09630090393,0.08291552011988876,0.14137815298012363
87305.10130090393,87305.10130090393,0.08406784635817859,0.14059582743526441
87305.10630090394,87305.10630090394,0.0852167355547422,0.1398043618117045
87305.11130090394,87305.11130090394,0.08636207219202194,0.13900384245449288
87305.11630090394,87305.11630090394,0.6051362679721628,0.13819465806840503
87305.12130090395,87305.12130090395,0.08864184456361869,0.13737648309777778
87305.12630090395,87305.12630090395,0.08977599537605789,0.13654965986168058
87305.13130090396,87305.13130090396,0.0909061549726555,0.1357141499217388
87305.13630090396,87305.13630090396,0.09203220423354327,0.13487002739386844
87305.14130090397,87305.14130090397,0.09315405219833262,0.1340174232226474
87305.14630090397,87305.14630090397,0.094271631516461,0.1331565068592888
87305.15130090398,87305.15130090398,0.0953846928582022,0.13228710519049322
87305.15630090398,87305.15630090398,0.09649332390941155,0.13140967115179095
87305.16130090399,87305.16130090399,0.09759721245105964,0.13052393176461602
87305.16630090399,87305.16630090399,0.28004926717344847,0.12963024180677415
87305.171300904,87305.171300904,0.09979069533409414,0.6056345742580134
87305.176300904,87305.176300904,0.10087995251047525,0.12781889481957517
87305.181300904,87305.181300904,0.10196421569437865,0.126901603403482
87305.18630090401,87305.18630090401,0.10304325104948348,0.12597657375983448
87305.19130090401,87305.19130090401,0.10411701588911618,0.1250439934137124
87305.19630090402,87305.19630090402,0.3039093009899343,0.12410382328693288
87305.20130090402,87305.20130090402,0.10624814272883645,0.12315632541948142
87305.20630090403,87305.20630090403,0.10730530230223248,0.1222014451869145
87305.21130090403,87305.21130090403,0.10835670566876845,0.12123931523139952
87305.21630090404,87305.21630090404,0.1094023255950395,0.48335408297421056
87305.22130090404,87305.22130090404,0.15629773557108873,0.11929395307699858
87305.22630090405,87305.22630090405,0.11147561866971806,0.11831073727610686
87305.23130090405,87305.23130090405,0.1125031522402352,0.11732080798963114
87305.23630090406,87305.23630090406,0.11352433960281538,0.11632404299784903
87305.24130090406,87305.24130090406,0.11453921408591887,0.1153206881630396
87305.24630090407,87305.24630090407,0.11554767497970994,0.1143108411603171
87305.25130090407,87305.25130090407,0.1165495026415629,0.11329448589614452
87305.25630090408,87305.25630090408,0.11754472389715477,0.11227184810137734
87305.26130090408,87305.26130090408,0.11853305272121599,0.11124285918799665
87305.26630090408,87305.26630090408,0.11951477974043612,0.2622082118976921
87305.27130090409,87305.27130090409,0.12048941691464535,0.10916693973286298
87305.2763009041,87305.2763009041,0.12145709626086446,0.10812006629365807
87305.2813009041,87305.2813009041,0.12241754469967284,0.10706730984648262
87305.2863009041,87305.2863009041,0.12337069421377787,0.10600880346848106
87305.29130090411,87305.29130090411,0.12431660922240167,0.10494477532419977
87305.29630090411,87305.29630090411,0.12525495225059202,0.10387515058656527
87305.30130090412,87305.30130090412,0.12618598661406505,0.10280029351104458
87305.30630090412,87305.30630090412,0.1271093303429535,0.10172010298410068
87305.31130090413,87305.31130090413,0.1280247278459433,0.10063458560686135
87305.31630090413,87305.31630090413,0.1289326938808684,0.37887119329679075
87305.32130090414,87305.32130090414,0.12983253214166016,0.09844880350381711
87305.32630090414,87305.32630090414,0.13072444674842038,0.09734855257004386
87305.33130090414,87305.33130090414,0.13160826019991972,0.09624355051344047
87305.33630090415,87305.33630090415,0.13248403523755561,0.1332518687938501
87305.34130090415,87305.34130090415,0.13335145301913262,0.09401985968420187
87305.34630090416,87305.34630090416,0.13421051612348217,0.09290131552703235
87305.35130090416,87305.35130090416,0.13506118351687918,0.09177849501765142
87305.35630090417,87305.35630090417,0.13590339783362657,0.0906515220945571
87305.36130090417,87305.36130090417,0.1367369721710527,0.08952045987816272
87305.36630090418,87305.36630090418,0.8873183252707854,0.08838546026822304
87305.37130090418,87305.37130090418,0.13837798197047363,0.08724657865587922
87305.37630090419,87305.37630090419,0.13918527170284026,0.08610399559160628
87305.38130090419,87305.38130090419,0.13998368182360846,0.08495781789037085
87305.3863009042,87305.3863009042,0.1407731301040642,0.08380815760352578
87305.3913009042,87305.3913009042,0.6799747427466846,0.08265509047370136
87305.3963009042,87305.3963009042,0.14232464942319933,0.10564173473185608
87305.40130090421,87305.40130090421,0.14308653516817896,0.08033928984080752
87305.40630090421,87305.40630090421,0.14383921282286957,0.07917679650559842
87305.41130090422,87305.41130090422,0.14458234714198717,0.6158586075407607
87305.41630090422,87305.41630090422,0.14531617282274442,0.2804001493229943
87305.42130090423,87305.42130090423,0.14604038396273056,0.07567219725930052
87305.42630090423,87305.42630090423,0.14675508418671995,0.07449873117691103
87305.43130090424,87305.43130090424,0.14746002944251071,0.0733227944934608
87305.43630090424,87305.43630090424,0.14815530364936133,0.07214454326043575
87305.44130090425,87305.44130090425,0.14884065127438323,0.11351372066947624
87305.44630090425,87305.44630090425,0.14951621487142935,0.06978148710873279
87305.45130090426,87305.45130090426,0.15018173392390305,0.06859692523435246
87305.45630090426,87305.45630090426,0.15083728099318497,0.06741051289735635
87305.46130090427,87305.46130090427,0.1514827972077501,0.06622236820274346
87305.46630090427,87305.46630090427,0.1521180926747407,0.06503258959682229
87305.47130090428,87305.47130090428,0.1527432166489016,0.06384131361744061
87305.47630090428,87305.47630090428,0.15335808647734203,0.0626486558145294
87305.48130090428,87305.48130090428,0.15396256052558321,0.10773121539430175
87305.48630090429,87305.48630090429,0.1545566213247617,0.0602596491849496
87305.4913009043,87305.4913009043,0.15514030052928665,0.05906355401162424
87305.4963009043,87305.4963009043,0.15571353344364647,0.05786655693376579
87305.5013009043,87305.5013009043,0.15627609002454762,0.056668764283794616
87305.50630090431,87305.50630090431,0.15682790619058037,0.05547029933903198
87305.51130090431,87305.51130090431,0.1573692431199615,0.054271297961046315
87305.51630090432,87305.51630090432,0.15789970285821572,0.05307186360585521
87305.52130090432,87305.52130090432,0.1584194627021915,0.0518721249988946
87305.52630090433,87305.52630090433,0.15892837171167817,0.05067219849952985
87305.53130090433,87305.53130090433,0.1594263826738604,0.05052779582718825
87305.53630090434,87305.53630090434,0.15991339544162392,0.051727736889204165
87305.54130090434,87305.54130090434,0.16038952138794726,0.0529275071056809
87305.54630090435,87305.54630090435,0.1608544993457242,0.054126981977728715
87305.55130090435,87305.55130090435,0.16130838864233044,0.05532604298294583
87305.55630090435,87305.55630090435,0.16175106456140176,0.05652456563907266
87305.56130090436,87305.56130090436,0.1621827834296332,0.05772244829628091
87305.56630090436,87305.56630090436,0.1626033130009705,0.05891956279747266
87305.57130090437,87305.57130090437,0.16301242316254852,0.06011577351686604
87305.57630090437,87305.57630090437,0.16341031881024398,0.06131098055981433
87305.58130090438,87305.58130090438,0.25029497858099387,0.06250504985563078
87305.58630090438,87305.58630090438,0.16417190052461456,0.7318182868360941
87305.59130090439,87305.59130090439,0.16453560856545518,0.06488931725806739
87305.59630090439,87305.59630090439,0.16488787859269044,0.33574549059715875
87305.6013009044,87305.6013009044,0.16522869135207321,0.06726764150110238
87305.6063009044,87305.6063009044,0.6275120547812996,0.06845422624268249
87305.6113009044,87305.6113009044,0.16587545059678901,0.06963902140920004
87305.61630090441,87305.61630090441,0.16618163297274455,0.07082185232095936
87305.62130090441,87305.62130090441,0.16647609601236651,0.07200258345018681
87305.62630090442,87305.62630090442,0.16675907285121938,0.07318114585463181
87305.63130090442,87305.63130090442,0.1670301211626427,0.07435734021855883
87305.63630090443,87305.63630090443,0.16728958471778993,0.07553112250894069
87305.64130090443,87305.64130090443,0.16753741838166353,0.07670237423139244
87305.64630090444,87305.64630090444,0.16777323734698724,0.0778708958217269
87305.65130090444,87305.65130090444,0.16799746696840595,0.22794267517239178
87305.65630090445,87305.65630090445,0.2793413995197904,0.08019956052624543
87305.66130090445,87305.66130090445,0.16841052067994913,0.08135940780493912
87305.66630090446,87305.66630090446,0.16859925491834934,0.08251611867035406
87305.67130090446,87305.67130090446,0.34559042484609226,0.0836695650584152
87305.67630090447,87305.67630090447,0.16894116529063974,0.08481968155242121
87305.68130090447,87305.68130090447,0.1690942065803482,0.08596627353649168
87305.68630090448,87305.68630090448,0.1692354379401643,0.08710929860476448
87305.69130090448,87305.69130090448,0.16936464559982264,0.08824858131463105
87305.69630090448,87305.69630090448,0.16948198198769981,0.08938405947144966
87305.70130090449,87305.70130090449,0.1695873417014599,0.09051558944567713
87305.7063009045,87305.7063009045,0.16968088684574034,0.09164311751661655
87305.7113009045,87305.7113009045,0.16976228243479474,0.09276641862427867
87305.7163009045,87305.7163009045,0.2901362060362537,0.09388547587827131
87305.72130090451,87305.72130090451,0.16988913495776273,0.09500007404804177
87305.72630090451,87305.72630090451,0.16993474018286242,0.09611026695270797
87305.73130090452,87305.73130090452,0.1699684095386282,0.09721587301956162
87305.73630090452,87305.73630090452,0.16998993693655426,0.09831670179461575
87305.74130090453,87305.74130090453,0.1699993227021699,0.0994126402838711
87305.74630090453,87305.74630090453,0.16999689852745845,0.10050371482244645
87305.75130090454,87305.75130090454,0.16998239888928404,0.10158970738742333
87305.75630090454,87305.75630090454,0.1699560555851671,0.10267060834210114
87305.76130090455,87305.76130090455,0.16991745593416657,0.41628935851559246
87305.76630090455,87305.76630090455,0.7773612356761666,0.10481637411292122
87305.77130090455,87305.77130090455,0.16980437420710295,0.10588096924847588
87305.77630090456,87305.77630090456,0.1697301482464562,0.10694019604034063
87305.78130090456,87305.78130090456,0.5159927397166038,0.10799367323019711
87305.78630090457,87305.78630090457,0.2663549845569303,0.10904129462121617
87305.79130090457,87305.79130090457,0.16943502795867302,0.1100829912190696
87305.79630090458,87305.79630090458,0.16931286877514448,0.11111877082100104
87305.80130090458,87305.80130090458,0.16917868442855044,0.11214839138063182
87305.80630090459,87305.80630090459,0.1690324934765736,0.11317175027381782
87305.81130090459,87305.81130090459,0.1688746059110492,0.11418890194230001
87305.8163009046,87305.8163009046,0.16870462239953907,0.11519952252510282
87305.8213009046,87305.8213009046,0.1685228592687084,0.11620367251807298
87305.8263009046,87305.8263009046,0.1683292288287236,0.22728979550749984
87305.83130090461,87305.83130090461,0.16812379702155716,0.1181920126990236
87305.83630090462,87305.83630090462,0.16790652103557757,0.1191759942887015
87305.84130090462,87305.84130090462,0.1676774768338329,0.12015307153909087
87305.84630090462,87305.84630090462,0.1674365866449055,0.12112308641151633
87305.85130090463,87305.85130090463,0.1671840276549167,0.12208603385494364
87305.85630090463,87305.85630090463,0.1669196622492082,0.12304171780046828
87305.86130090464,87305.86130090464,0.16664380701900924,0.12399022438523097
87305.86630090464,87305.86630090464,0.16635618719945633,0.12493126971599706
87305.87130090465,87305.87130090465,0.45388062643568183,0.5014288301561525
87305.87630090465,87305.87630090465,0.16574592397935783,0.1267906919264043
87305.88130090466,87305.88130090466,0.1654235303176266,0.32031752984521533
87305.88630090466,87305.88630090466,0.16508954199708953,0.12861951655229512
87305.89130090467,87305.89130090467,0.1647439576449322,0.12952210424729052
87305.89630090467,87305.89630090467,0.16438691837211988,0.13041675193387192
87305.90130090468,87305.90130090468,0.16401857797882533,0.1945377517558481
87305.90630090468,87305.90630090468,0.16363883646053481,0.132182029731888
87305.91130090469,87305.91130090469,0.16324751449609237,0.1330522292031693
87305.91630090469,87305.91630090469,0.16284506341374644,0.13391426629243544
87305.9213009047,87305.9213009047,0.16243123927927663,0.13476784651892826
87305.9263009047,87305.9263009047,0.16200622786260216,0.13561299208380287
87305.9313009047,87305.9313009047,0.16157004412915724,0.13644959888651886
87305.93630090471,87305.93630090471,0.716757594179425,0.13727742125814732
87305.94130090471,87305.94130090471,0.1606640605823818,0.13809664744404865
87305.94630090472,87305.94630090472,0.1601945553581989,0.13890708491402498
87305.95130090472,87305.95130090472,0.15971386564488374,0.13970849836026203
87305.95630090473,87305.95630090473,0.15922233594077057,0.14050104780240877
87305.96130090473,87305.96130090473,0.1587198094919466,0.14128448549243272
87305.96630090474,87305.96630090474,0.1582064372872704,0.14205881614041818
87305.97130090474,87305.97130090474,0.15768211422729062,0.142823828470838
87305.97630090475,87305.97630090475,0.15714733839588269,0.14357983072470695
87305.98130090475,87305.98130090475,0.15660173807391356,0.1443263817622604
87305.98630090475,87305.98630090475,0.15604537922428793,0.4985347181846087
87305.99130090476,87305.99130090476,0.15547838265814548,0.14579090818266824
87305.99630090476,87305.99630090476,0.1549009553583639,0.24300291777989025
87306.00130090477,87306.00130090477,0.1543130097755877,0.14721727540050486
87306.00630090477,87306.00630090477,0.15371461955582494,0.1479158873948031
87306.01130090478,87306.01130090478,0.15310583024800548,0.14860468136985014
87306.01630090478,87306.01630090478,0.4558616524415681,0.14928357399993913
87306.02130090479,87306.02130090479,0.6750233593753655,0.14995263578908244
87306.02630090479,87306.02630090479,0.15121792444926568,0.1506117039084428
87306.0313009048,87306.0313009048,0.15056826815528981,0.15126065162566524
87306.0363009048,87306.0363009048,0.1499085617741774,0.15189947948794164
87306.0413009048,87306.0413009048,0.14923886610857512,0.1525281187399019
87306.04630090481,87306.04630090481,0.14855929015371655,0.15314655062061783
87306.05130090482,87306.05130090482,0.14786984296499694,0.15375465236183444
87306.05630090482,87306.05630090482,0.14717061061784334,0.154352381154522
87306.06130090482,87306.06130090482,0.14646163851397753,0.1549396504301292
87306.06630090483,87306.06630090483,0.14574294094486187,0.5903154492195599
87306.07130090483,87306.07130090483,0.1450146803630602,0.26977398067053066
87306.07630090484,87306.07630090484,0.22744370571050726,0.15663819327667614
87306.08130090484,87306.08130090484,0.14353000924577572,0.15718321238140728
87306.08630090485,87306.08630090485,0.1427734685107057,0.3167779906324406
87306.09130090485,87306.09130090485,0.5589009731951431,0.1582408267550419
87306.09630090486,87306.09630090486,0.14123283581763738,0.1587535499696502
87306.10130090486,87306.10130090486,0.14044874868485216,0.15925529772383845
87306.10630090487,87306.10630090487,0.2831481427583121,0.15974608086431372
87306.11130090487,87306.11130090487,0.13885349114506904,0.16022593168515575
87306.11630090488,87306.11630090488,0.13804255502715387,0.16069481349337456
87306.12130090488,87306.12130090488,0.13722281240775,0.16115262415228063
87306.12630090489,87306.12630090489,0.13639426157547582,0.16159920952207515
87306.13130090489,87306.13130090489,0.13555718685954077,0.16203478419660772
87306.1363009049,87306.1363009049,0.1347115219042947,0.6154466689726645
87306.1413009049,87306.1413009049,0.13385732027571462,0.1628721056306284
87306.1463009049,87306.1463009049,0.13299473121895725,0.16327380866642383
87306.15130090491,87306.15130090491,0.1321239647345218,0.1636643515987076
87306.15630090491,87306.15630090491,0.1312449138653103,0.16404342991148366
87306.16130090492,87306.16130090492,0.13035767578638185,0.1644110149243837
87306.16630090492,87306.16630090492,0.12946248538174432,0.16476727714973016
87306.17130090493,87306.17130090493,0.12855929101517377,0.1651119789288425
87306.17630090493,87306.17630090493,0.12764832374696805,0.16544529158670251
87306.18130090494,87306.18130090494,0.12672950630538923,0.3662624288422154
87306.18630090494,87306.18630090494,0.12580304591578353,0.16607704271835427
87306.19130090495,87306.19130090495,0.12486906415810421,0.1663756359959588
87306.19630090495,87306.19630090495,0.12392750780849507,0.1666624556442217
87306.20130090496,87306.20130090496,0.12297854297709035,0.16693758243423035
87306.20630090496,87306.20630090496,0.12202233581444405,0.16720110336059246
87306.21130090496,87306.21130090496,0.12105899939407763,0.43741869831572333
87306.21630090497,87306.21630090497,0.12008843730316192,0.167693004723616
87306.22130090497,87306.22130090497,0.11911093363594535,0.16792132731788614
87306.22630090498,87306.22630090498,0.11812644566263729,0.16813773253415976
87306.23130090498,87306.23130090498,0.11713517865803286,0.16834238069448162
87306.23630090499,87306.23630090499,0.11613724872822284,0.16853528443850102
87306.24130090499,87306.24130090499,0.11513269388402975,0.16871631639590168
87306.246300905,87306.246300905,0.11412161278748753,0.16888545445597355
87306.251300905,87306.251300905,0.40221787877154364,0.16904259873622624
87306.256300905,87306.256300905,0.1120802880861854,0.17534313010273148
87306.26130090501,87306.26130090501,0.6833136101469987,0.1693212851423323
87306.26630090502,87306.26630090502,0.11001411599426456,0.16944283726359152
87306.27130090502,87306.27130090502,0.10897197655600735,0.1695523463220677
87306.27630090502,87306.27630090502,0.10792390769507684,0.16964983315603518
87306.28130090503,87306.28130090503,0.10687012320496266,0.16973551342096038
87306.28630090503,87306.28630090503,0.1058106147793746,0.5257650508280626
87306.29130090504,87306.29130090504,0.10474552866981525,0.16987080050554515
87306.29630090504,87306.29630090504,0.10367498996637786,0.169920519613288
87306.30130090505,87306.30130090505,0.10259898230085965,0.16995801772350883
87306.30630090505,87306.30630090505,0.10151779089351136,0.16998368991044427
87306.31130090506,87306.31130090506,0.10043149326528297,0.1699974718792364
87306.31630090506,87306.31630090506,0.09934011296674368,0.16999916248341423
87306.32130090507,87306.32130090507,0.09824375209517218,0.16998873828378566
87306.32630090507,87306.32630090507,0.26500088039553593,0.16996640815421454
87306.33130090508,87306.33130090508,0.0960368067475398,0.16993224393889406
87306.33630090508,87306.33630090508,0.4090303049145636,0.16988587582491518
87306.34130090509,87306.34130090509,0.09381137410117343,0.2818633318805398
87306.34630090509,87306.34630090509,0.09269205863480583,0.1697573674434427
87306.3513009051,87306.3513009051,0.09156843730822838,0.6417706805725345
87306.3563009051,87306.3563009051,0.09044065178926759,0.16958076880458767
87306.3613009051,87306.3613009051,0.08930886600843865,0.16947464547054006
87306.36630090511,87306.36630090511,0.08817308875678066,0.16935638776094536
87306.37130090511,87306.37130090511,0.08703355747544587,0.1692263913747613
87306.37630090512,87306.37630090512,0.08589032095834769,0.1690844699277051
87306.38130090512,87306.38130090512,0.08474345751716039,0.1689305141086615
87306.38630090513,87306.38630090513,0.08359312693874839,0.1687646875250725
87306.39130090513,87306.39130090513,0.08243946551523897,0.25195300691917283
87306.39630090514,87306.39630090514,0.08128254129398478,0.16839755835796014
87306.40130090514,87306.40130090514,0.08012248997772177,0.16819619566076704
87306.40630090515,87306.40630090515,0.07895941338711908,0.16798296048477118
87306.41130090515,87306.41130090515,0.0777934503028973,0.1677579631754487
87306.41630090516,87306.41630090516,0.07662469193938432,0.16752111844214038
87306.42130090516,87306.42130090516,0.07545332225641344,0.16727274890920185
87306.42630090516,87306.42630090516,0.07427936845861655,0.16701247787063386
87306.43130090517,87306.43130090517,0.07310299284873703,0.16674053406918585
87306.43630090517,87306.43630090517,0.07192431300656589,0.16645694771030517
87306.44130090518,87306.44130090518,0.07074344256724692,0.16616172803950335
87306.44630090518,87306.44630090518,0.06956048143023202,0.16585480064172
87306.45130090519,87306.45130090519,0.06837558248042597,0.1655363945162816
87306.45630090519,87306.45630090519,0.06718882931447728,0.1652063309813231
87306.4613009052,87306.4613009052,0.06600036181153529,0.3563723004965913
87306.4663009052,87306.4663009052,0.06481027913438006,0.16451160667267514
87306.4713009052,87306.4713009052,0.06361876425743557,0.16414737322094047
87306.47630090521,87306.47630090521,0.062425852714950235,0.16377144984084305
87306.48130090522,87306.48130090522,0.06123170608590655,0.2036193745229023
87306.48630090522,87306.48630090522,0.06003642594612345,0.16298553867059898
87306.49130090523,87306.49130090523,0.05884015141102736,0.49522270678186336
87306.49630090523,87306.49630090523,0.05764299529813386,0.1621545603237814
87306.50130090523,87306.50130090523,0.05644506804670626,0.16172215260019196
87306.50630090524,87306.50630090524,0.05524649847568701,0.16127859945081455
87306.51130090524,87306.51130090524,0.05404740751127682,0.1608240009297608
87306.51630090525,87306.51630090525,0.052847902879090095,0.16035804951406013
87306.52130090525,87306.52130090525,0.051648123435990394,0.15988140965036868
87306.52630090526,87306.52630090526,0.7009832360983244,0.15939364429085573
87306.53130090526,87306.53130090526,0.05075181784235336,0.15889489949811836
87306.53630090527,87306.53630090527,0.05195173515748744,0.15838526204500197
87306.54130090527,87306.54130090527,0.05315145674173229,0.1578647924418628
87306.54630090528,87306.54630090528,0.05435086837850706,0.15733367862767159
87306.55130090528,87306.55130090528,0.05554983970334519,0.15679167944553374
87306.55630090529,87306.55630090529,0.05674826132368894,0.15623909732661007
87306.56130090529,87306.56130090529,0.05794599880835697,0.1556757487606187
87306.5663009053,87306.5663009053,0.059142949178067214,0.6520780823608148
87306.5713009053,87306.5713009053,0.0603389778378023,0.15451753914891547
87306.5763009053,87306.5763009053,0.061533988178155204,0.1539228393946084
87306.58130090531,87306.58130090531,0.06272783083517745,0.1533176113501558
87306.58630090531,87306.58630090531,0.06392040927923631,0.1527021231622808
87306.59130090532,87306.59130090532,0.06511158088988074,0.15207625910842631
87306.59630090532,87306.59630090532,0.06630124905949795,0.151440246663434
87306.60130090533,87306.60130090533,0.0674892943381183,0.15079413373101613
87306.60630090533,87306.60630090533,0.06867558703323333,0.15013791844228022
87306.61130090534,87306.61130090534,0.06986001942282764,0.14947172426637834
87306.61630090534,87306.61630090534,0.0710424346938682,0.14879543163983103
87306.62130090535,87306.62130090535,0.07222278198556598,0.1481094333036438
87306.62630090535,87306.62630090535,0.07340087760903011,0.14741349374275273
87306.63130090536,87306.63130090536,0.0745766253498953,0.14670779017657154
87306.63630090536,87306.63630090536,0.07574996523526656,0.14599261056601703
87306.64130090536,87306.64130090536,0.07692072378371671,0.14526779904795462
87306.64630090537,87306.64630090537,0.07808876474107437,0.14453336732952873
87306.65130090537,87306.65130090537,0.07925399695898974,0.14378948532444466
87306.65630090538,87306.65630090538,0.5372696048758197,0.1430363161722488
87306.66130090538,87306.66130090538,0.08157558269648722,0.1422737040821647
87306.66630090539,87306.66630090539,0.08273169887913333,0.14150193843733253
87306.6713009054,87306.6713009054,0.08388451064983907,0.14072093834254365
87306.6763009054,87306.6763009054,0.0850340099373938,0.1399310675822112
87306.6813009054,87306.6813009054,0.0861799243159675,0.13913199293636747
87306.6863009054,87306.6863009054,0.15161909729324297,0.13832417773258487
87306.69130090541,87306.69130090541,0.08846083184575577,0.13750731113017517
87306.69630090542,87306.69630090542,0.08959562938877047,0.1366819288294115
87306.70130090542,87306.70130090542,0.09072639939018957,0.13584772670491144
87306.70630090543,87306.70630090543,0.09185313969394672,0.13500503109650838
87306.71130090543,87306.71130090543,0.09297567428511969,0.13415379239840855
87306.71630090543,87306.71630090543,0.0940938823128006,0.13329408256958816
87306.72130090544,87306.72130090544,0.09520774715046744,0.13242616915793182
87306.72630090544,87306.72630090544,0.0963170135277907,0.13154987101289883
87306.73130090545,87306.73130090545,0.09742167585814294,0.13066546993437952
87306.73630090545,87306.73630090545,0.09852165083925192,0.12977309377586452
87306.74130090546,87306.74130090546,0.09961670963045613,0.12887263381285058
87306.74630090546,87306.74630090546,0.10070688130618514,0.12796440375946316
87306.75130090547,87306.75130090547,0.10179189070658924,0.12704823563356488
87306.75630090547,87306.75630090547,0.10287178556926627,0.12612446000616923
87306.76130090548,87306.76130090548,0.10394633478215677,0.12519298781872065
87306.76630090548,87306.76630090548,0.10501557265281607,0.1242541116777486
87306.77130090549,87306.77130090549,0.1060792315013113,0.12330770483585078
87306.77630090549,87306.77630090549,0.1071372585373087,0.12235393898853339
87306.7813009055,87306.7813009055,0.10818969190882123,0.12139308938834657
87306.7863009055,87306.7863009055,0.43078786970500244,0.12042499061251791
87306.7913009055,87306.7913009055,0.11027681937069649,0.1194498487972185
87306.79630090551,87306.79630090551,0.11131143282925073,0.11846780852353253
87306.80130090551,87306.80130090551,0.11233985725619655,0.11747885680781715
87306.80630090552,87306.80630090552,0.11336209395105115,0.1164832089429281
87306.81130090552,87306.81130090552,0.11437804081843876,0.11548095931117637
87306.81630090553,87306.81630090553,0.11538749326334026,0.11447210260350629
87306.82130090553,87306.82130090553,0.11639037245406444,0.11345676572889608
87306.82630090554,87306.82630090554,0.11738665334841955,0.11243512311009655
87306.83130090554,87306.83130090554,0.11837621061046442,0.11140725057535078
87306.83630090555,87306.83630090555,0.11935894246508456,0.11037324667772337
87306.84130090555,87306.84130090555,0.12033469567296787,0.1093331680822904
87306.84630090556,87306.84630090556,0.12130341979782489,0.10828716012514247
87306.85130090556,87306.85130090556,0.12226499438330596,0.10723530903497872
87306.85630090557,87306.85630090557,0.12321936434106315,0.4886012646340837
87306.86130090557,87306.86130090557,0.12416650874699485,0.10511464998511778
87306.86630090557,87306.86630090557,0.1251061072284291,0.10404593881470868
87306.87130090558,87306.87130090558,0.1260382281556898,0.170616702019612
87306.87630090558,87306.87630090558,0.12696274851700434,0.10189246237815515
87306.88130090559,87306.88130090559,0.1278795702777602,0.1008078860857745
87306.8863009056,87306.8863009056,0.1287885529313583,0.0997181969686347
87306.8913009056,87306.8913009056,0.12968973262995623,0.09862358479707602
87306.8963009056,87306.8963009056,0.13058300804025857,0.09752414760406024
87306.9013009056,87306.9013009056,0.13146808989138473,0.09641987765352024
87306.90630090561,87306.90630090561,0.1323450513600967,0.09531098213771387
87306.91130090562,87306.91130090562,0.13321385876208341,0.7541109779302981
87306.91630090562,87306.91630090562,0.13407428395078383,0.09307976335517039
87306.92130090563,87306.92130090563,0.13492630668616484,0.09195762231904127
87306.92630090563,87306.92630090563,0.1357697976946542,0.09083126678092326
87306.93130090563,87306.93130090563,0.13660481493255586,0.08970087683566164
87306.93630090564,87306.93630090564,0.1374310821366274,0.08856647529511087
87306.94130090564,87306.94130090564,0.13824855186855017,0.2590980775257891
87306.94630090565,87306.94630090565,0.13905734690896687,0.08628623548672092
87306.95130090565,87306.95130090565,0.1398571504575428,0.08514061155573308
87306.95630090566,87306.95630090566,0.1406479444178408,0.19301756579266005
87306.96130090566,87306.96130090566,0.14142959744199568,0.08283889381955103
87306.96630090567,87306.96630090567,0.14220242100878255,0.08168314971368612
87306.97130090567,87306.97130090567,0.2127229280177534,0.08052416027166488
87306.97630090568,87306.97630090568,0.14371988458656285,0.07936211474472993
87306.98130090568,87306.98130090568,0.14446462543185545,0.07819714468883532
87306.98630090569,87306.98630090569,0.14519996667756255,0.13045065475848694
87306.99130090569,87306.99130090569,0.14592567466182998,0.07585885697720761
87306.9963009057,87306.9963009057,0.23322607289596486,0.07468579496999
87307.0013009057,87307.0013009057,0.14734843500768485,0.0735102461141156
87307.0063009057,87307.0063009057,0.1480451636702294,0.07233233476731965
87307.01130090571,87307.01130090571,0.14873217107772424,0.18911952518853148
87307.01630090571,87307.01630090571,0.7378276683478656,0.06996996850057118
87307.02130090572,87307.02130090572,0.15007639231416503,0.06878570889680485
87307.02630090572,87307.02630090572,0.15073358933839104,0.06759959363627341
87307.03130090573,87307.03130090573,0.15138061961459295,0.06641170232421616
87307.03630090573,87307.03630090573,0.15201766509634326,0.0652221939958675
87307.04130090574,87307.04130090574,0.15264432420956336,0.06403113564546725
87307.04630090574,87307.04630090574,0.1532608240991299,0.06283868917037362
87307.05130090575,87307.05130090575,0.15386706140746326,0.06164496559067508
87307.05630090575,87307.05630090575,0.15446275482207578,0.06045005968172529
87307.06130090576,87307.06130090576,0.1550479917080225,0.059254109271527314
87307.06630090576,87307.06630090576,0.155622954783868,0.0580572535153451
87307.07130090577,87307.07130090577,0.15618710327048196,0.05685957205624612
87307.07630090577,87307.07630090577,0.15674075651744918,0.22944330875266492
87307.08130090577,87307.08130090577,0.15728375295688904,0.05446228908921099
87307.08630090578,87307.08630090578,0.15781601299297676,0.05326291739071702
87307.09130090578,87307.09130090578,0.15833740601914972,0.052063217184462204
87307.09630090579,87307.09630090579,0.1588480359828286,0.050863312361292594
87307.1013009058,87307.1013009058,0.15934772967668778,0.10331159506616183
87307.1063009058,87307.1063009058,0.15983658569813594,0.05153663697374033
87307.1113009058,87307.1113009058,0.16031416408842025,0.052736435382905844
87307.11630090581,87307.11630090581,0.1607810534852102,0.053935967346539986
87307.12130090581,87307.12130090581,0.1612368474804553,0.05513510729179643
87307.12630090582,87307.12630090582,0.16168140717284626,0.056333729236262536
87307.13130090582,87307.13130090582,0.16211486121231994,0.05753172170270254
87307.13630090583,87307.13630090583,0.16253700037225657,0.05872895384563964
87307.14130090583,87307.14130090583,0.1629480380362297,0.05992532506412242
87307.14630090584,87307.14630090584,0.16334760569207546,0.061120688504537404
87307.15130090584,87307.15130090584,0.16373591721003977,0.06231494674683421
87307.15630090584,87307.15630090584,0.2691479967528507,0.06350797362415553
87307.16130090585,87307.16130090585,0.16447843586992747,0.06469965584964198
87307.16630090585,87307.16630090585,0.35296807717181244,0.0658898650239994
87307.17130090586,87307.17130090586,0.16517514459118188,0.0670784840097757
87307.17630090586,87307.17630090586,0.16550611310668062,0.06826537629918755
87307.18130090587,87307.18130090587,0.16582571421467907,0.0694504700420925
87307.18630090587,87307.18630090587,0.16613368870591483,0.07063361245490578
87307.19130090588,87307.19130090588,0.21810097627815703,0.07181464165910244
87307.19630090588,87307.19630090588,0.16671472944707227,0.07299358295317064
87307.20130090589,87307.20130090589,0.16698779771314654,0.07417018665781804
87307.20630090589,87307.20630090589,0.16724906078414567,0.29603747146821324
87307.2113009059,87307.2113009059,0.33663056598121033,0.07651598607060973
87307.2163009059,87307.2163009059,0.16773658293678606,0.07768500214312761
87307.2213009059,87307.2213009059,0.16796259577724687,0.07885120990690345
87307.22630090591,87307.22630090591,0.16817689789031362,0.08001455315340852
87307.23130090591,87307.23130090591,0.3121654817738363,0.08117488598064165
87307.23630090592,87307.23630090592,0.16856993515453034,0.08233209490766397
87307.24130090592,87307.24130090592,0.1687486583766976,0.08348606766313871
87307.24630090593,87307.24630090593,0.16891563182161978,0.08463672722022177
87307.25130090593,87307.25130090593,0.1690705812948642,0.08578388495038422
87307.25630090594,87307.25630090594,0.16921361195907048,0.08692745976046097
87307.26130090594,87307.26130090594,0.16934477213798071,0.08806735664115325
87307.26630090595,87307.26630090595,0.16946403018554426,0.21884423593638294
87307.27130090595,87307.27130090595,0.16957131613015808,0.09033562920884719
87307.27630090596,87307.27630090596,0.16966670769845985,0.09146378912033888
87307.28130090596,87307.28130090596,0.4841312312232927,0.09258781945405513
87307.28630090597,87307.28630090597,0.16982150462320214,0.09370753222734837
87307.29130090597,87307.29130090597,0.16988078357640468,0.09482284809527229
87307.29630090597,87307.29630090597,0.16992837433083943,0.19544375235360423
87307.30130090598,87307.30130090598,0.6403609847757799,0.33381831801946127
87307.30630090598,87307.30630090598,0.16998728804122837,0.09814168941334803
87307.31130090599,87307.31130090599,0.1699986378703166,0.09923842644352707
87307.316300906,87307.316300906,0.1699981550518595,0.15665375126831038
87307.321300906,87307.321300906,0.16998558961930466,0.10141712278619136
87307.326300906,87307.326300906,0.1699608988888863,0.10249874026995183
87307.33130090601,87307.33130090601,0.16992440939355777,0.6909106984633893
87307.33630090601,87307.33630090601,0.16987581135238955,0.10464623765803872
87307.34130090602,87307.34130090602,0.16981531652370896,0.1057118585543482
87307.34630090602,87307.34630090602,0.16974273639914714,0.10677185973520788
87307.35130090603,87307.35130090603,0.16965831400803583,0.10782624643854423
87307.35630090603,87307.35630090603,0.1695618141840921,0.10887479685582045
87307.36130090604,87307.36130090604,0.16945344619381283,0.10991750298493039
87307.36630090604,87307.36630090604,0.438569143170367,0.1109541814276499
87307.37130090604,87307.37130090604,0.1692007849768597,0.5288852124637502
87307.37630090605,87307.37630090605,0.16905660017540883,0.1130091991648003
87307.38130090605,87307.38130090605,0.16890044027708434,0.11402727412066622
87307.38630090606,87307.38630090606,0.16873247926400045,0.11503899414333067
87307.39130090606,87307.39130090606,0.1685523599422925,0.11604405246769964
87307.39630090607,87307.39630090607,0.1683608915310122,0.11704278848926092
87307.40130090607,87307.40130090607,0.16815730851186644,0.11803466483846958
87307.40630090608,87307.40630090608,0.16794186108194445,0.11901970914510662
87307.41130090608,87307.41130090608,0.16771467527105383,0.1199978835850358
87307.41630090609,87307.41630090609,0.1674757497259413,0.12096907730627746
87307.42130090609,87307.42130090609,0.16722509090984466,0.12193318337038091
87307.4263009061,87307.4263009061,0.16696263077446924,0.12289004782997448
87307.4313009061,87307.4313009061,0.1666885921790078,0.12383969705328718
87307.4363009061,87307.4363009061,0.16640271816984362,0.1247818569256729
87307.44130090611,87307.44130090611,0.16610527700594577,0.12571658469107647
87307.44630090611,87307.44630090611,0.16579620612471715,0.1266437277947192
87307.45130090612,87307.45130090612,0.16547570059130567,0.12756330325479778
87307.45630090612,87307.45630090612,0.16514338858945732,0.1284749481653547
87307.46130090613,87307.46130090613,0.16479976238715877,0.12937888111241616
87307.46630090613,87307.46630090613,0.16444464571369494,0.1302748697511558
87307.47130090614,87307.47130090614,0.209139539473716,0.1311628309666469
87307.47630090614,87307.47630090614,0.1637000775815239,0.13204265109848587
87307.48130090615,87307.48130090615,0.16331061943625785,0.13291420690551142
87307.48630090615,87307.48630090615,0.16290990201796368,0.13377752268391818
87307.49130090616,87307.49130090616,0.1624979720356719,0.13463251993034048
87307.49630090616,87307.49630090616,0.4605233239649166,0.13547893956000448
87307.50130090617,87307.50130090617,0.16164020906664972,0.13631689304215383
87307.50630090617,87307.50630090617,0.16119454713551004,0.13714616319781534
87307.51130090618,87307.51130090618,0.16073780844303293,0.13796675187758933
87307.51630090618,87307.51630090618,0.16026996019526968,0.2114551070665284
87307.52130090618,87307.52130090618,0.15979125854605042,0.13958154151432625
87307.52630090619,87307.52630090619,0.1593013348022305,0.1403754119535475
87307.5313009062,87307.5313009062,0.15880055850897587,0.14116030778040778
87307.5363009062,87307.5363009062,0.15828900197440943,0.14193617179114965
87307.5413009062,87307.5413009062,0.15776651324466695,0.14270275496843451
87307.54630090621,87307.54630090621,0.15723333289717545,0.1434601414293772
87307.55130090621,87307.55130090621,0.15668906773024047,0.14420786387261214
87307.55630090622,87307.55630090622,0.15613473300713793,0.14494669502370805
87307.56130090622,87307.56130090622,0.15556940983092868,0.1456756983954164
87307.56630090623,87307.56630090623,0.15499358523623072,0.1463951834204063
87307.57130090623,87307.57130090623,0.46686817683081805,0.147105021377952
87307.57630090624,87307.57630090624,0.153810631762846,0.14780528946002544
87307.58130090624,87307.58130090624,0.15320345108503874,0.14849561038807899
87307.58630090625,87307.58630090625,0.15258606887044052,0.14917619536874047
87307.59130090625,87307.59130090625,0.15195826080681396,0.3219916930463511
87307.59630090625,87307.59630090625,0.15132030677190722,0.15050726741163042
87307.60130090626,87307.60130090626,0.1506723996276204,0.1511579621002615
87307.60630090626,87307.60630090626,0.2249906573803135,0.15179842760099457
87307.61130090627,87307.61130090627,0.14934616775490744,0.15242865896060193
87307.61630090627,87307.61630090627,0.14866820978294348,0.15304877138016532
87307.62130090628,87307.62130090628,0.1479803049719905,0.15365849623215783
87307.62630090628,87307.62630090628,0.17437050908257226,0.15425787777920655
87307.63130090629,87307.63130090629,0.1465750501894257,0.1548466566332821
87307.63630090629,87307.63630090629,0.14585804766228308,0.15542519764410445
87307.6413009063,87307.6413009063,0.14513135945964498,0.42171087513181005
87307.6463009063,87307.6463009063,0.5108698868868509,0.7291929203173749
87307.6513009063,87307.6513009063,0.14364942051691798,0.15709690032667284
87307.65630090631,87307.65630090631,0.14289451175636933,0.1576329346215556
87307.66130090631,87307.66130090631,0.14213024738528737,0.15815813044592633
87307.66630090632,87307.66630090632,0.14135690441215185,0.1586726706978105
87307.67130090632,87307.67130090632,0.1405742346990389,0.15917611804556317
87307.67630090633,87307.67630090633,0.1397825740322679,0.15966872734139526
87307.68130090633,87307.68130090633,0.13898191361592344,0.1601503439524896
87307.68630090634,87307.68630090634,0.13817236841251265,0.16062096226985387
87307.69130090634,87307.69130090634,0.13735400676326637,0.7823834289074972
87307.69630090635,87307.69630090635,0.13652683018219386,0.16152886735244437
87307.70130090635,87307.70130090635,0.1356909950866882,0.16196605208660111
87307.70630090636,87307.70630090636,0.13484675426094292,0.16239225386493536
87307.71130090636,87307.71130090636,0.13399394116105934,0.16280710192834955
87307.71630090637,87307.71630090637,0.4283099322637724,0.547030812778706
87307.72130090637,87307.72130090637,0.13226314842240772,0.16360284093975405
87307.72630090638,87307.72630090638,0.13138536175290305,0.1639836779373363
87307.73130090638,87307.73130090638,0.1304995125595071,0.16435322314725198
87307.73630090638,87307.73630090638,0.12960557679401255,0.1647112819966547
87307.74130090639,87307.74130090639,0.12870364685340652,0.16505782098555005
87307.7463009064,87307.7463009064,0.12779393270509773,0.165392980781505
87307.7513009064,87307.7513009064,0.12687636872835908,0.16571649760664656
87307.7563009064,87307.7563009064,0.12595110671826962,0.16602842664740056
87307.76130090641,87307.76130090641,0.1250183009670725,0.16632883143216493
87307.76630090641,87307.76630090641,0.12407792974784997,0.16661750463057226
87307.77130090642,87307.77130090642,0.1231302504887754,0.17969145863466748
87307.77630090642,87307.77630090642,0.12217515217182189,0.16715998461886078
87307.78130090643,87307.78130090643,0.1212129009209798,0.1674136840978238
87307.78630090643,87307.78630090643,0.5823910502440064,0.16765555878443278
87307.79130090644,87307.79130090644,0.11926706229881476,0.3011416391187112
87307.79630090644,87307.79630090644,0.11828373831356398,0.16810412555779308
87307.80130090645,87307.80130090645,0.11729349072313708,0.16831055413763069
87307.80630090645,87307.80630090645,0.11629664521583062,0.16850538271066168
87307.81130090645,87307.81130090645,0.11529311611588389,0.16868826592027938
87307.81630090646,87307.81630090646,0.11428307581157983,0.16885931436056403
87307.82130090646,87307.82130090646,0.11326651230760522,0.16901829984132166
87307.82630090647,87307.82630090647,0.11224376477087158,0.169165651882447
87307.83130090647,87307.83130090647,0.11121463468719754,0.16930078396455056
87307.83630090648,87307.83630090648,0.11017954399829855,0.16942429907692508
87307.84130090648,87307.84130090648,0.10913835723382191,0.16953571909685874
87307.84630090649,87307.84630090649,0.31754102551496344,0.16963519458809653
87307.85130090649,87307.85130090649,0.10703836608957266,0.1697227281730261
87307.8563009065,87307.8563009065,0.10597970676547334,0.1697981608386841
87307.8613009065,87307.8613009065,0.10491549468423425,0.16986170835543263
87307.8663009065,87307.8663009065,0.1038457961398049,0.16991328036404255
87307.87130090651,87307.87130090651,0.10277071783429546,0.1699528721677687
87307.87630090652,87307.87630090652,0.10169040635822715,0.16998057080347165
87307.88130090652,87307.88130090652,0.10060483409301944,0.454848191516941
87307.88630090652,87307.88630090652,0.09951423302439756,0.37789693652942336
87307.89130090653,87307.89130090653,0.09841869960093347,0.16999122632757538
87307.89630090653,87307.89630090653,0.09731833881500349,0.16997087120764026
87307.90130090654,87307.90130090654,0.0962132470103243,0.16993852422870426
87307.90630090654,87307.90630090654,0.09510347175286347,0.16989402087050423
87307.91130090655,87307.91130090655,0.4896801974714027,0.1698375977632945
87307.91630090655,87307.91630090655,0.09287055388936256,0.16976918257090318
87307.92130090656,87307.92130090656,0.09174764234847535,0.1696888883487288
87307.92630090656,87307.92630090656,0.17192912492986195,0.16959662217773458
87307.93130090657,87307.93130090657,0.08948936898610664,0.3132027921249487
87307.93630090657,87307.93630090657,0.08835424149784334,0.16937603663950146
87307.94130090658,87307.94130090658,0.08721533236836403,0.1692480104073668
87307.94630090658,87307.94630090658,0.08607261080858529,0.169107768335351
87307.95130090658,87307.95130090658,0.08492636396092744,0.16895588403914782
87307.95630090659,87307.95630090659,0.08377656108874573,0.16879188968211753
87307.9613009066,87307.9613009066,0.0826234411203373,0.16861622914102956
87307.9663009066,87307.9663009066,0.26507751099543353,0.16842853563914847
87307.9713009066,87307.9713009066,0.08030744081514235,0.16822902062791373
87307.97630090661,87307.97630090661,0.07914483130360647,0.3029632059718536
87307.98130090661,87307.98130090661,0.30096732532024406,0.16779464266783933
87307.98630090662,87307.98630090662,0.0768110623925456,0.38000382379817066
87307.99130090662,87307.99130090662,0.07564005691558237,0.16731310339595032
87307.99630090663,87307.99630090663,0.0744665119622609,0.16705475313772833
87308.00130090663,87308.00130090663,0.07329052113290793,0.16678470258949438
87308.00630090664,87308.00630090664,0.0721121837286332,0.1665028846476481
87308.01130090664,87308.01130090664,0.07093166463950128,0.16620957302787376
87308.01630090665,87308.01630090665,0.06974903790376714,0.16590456597737296
87308.02130090665,87308.02130090665,0.06856441987040478,0.16558786867650674
87308.02630090665,87308.02630090665,0.0673779533525484,0.16525965540313067
87308.03130090666,87308.03130090666,0.06618975811793659,0.1649199750410059
87308.03630090666,87308.03630090666,0.06499995235795807,0.16456886936752863
87308.04130090667,87308.04130090667,0.06380862322616239,0.16420612883770896
87308.04630090667,87308.04630090667,0.0626159058972637,0.16383188514154842
87308.05130090668,87308.05130090668,0.06142196874517511,0.16344663682792213
87308.05630090668,87308.05630090668,0.06022686815509274,0.1630498544253719
87308.06130090669,87308.06130090669,0.05903074263723184,0.16264174499451517
87308.06630090669,87308.06630090669,0.05783371133338987,0.1622223301287111
87308.0713009067,87308.0713009067,0.05663590015305265,0.16179173320427476
87308.0763009067,87308.0763009067,0.055437423603895,0.2724365437265852
87308.0813009067,87308.0813009067,0.05423840774034394,0.16089705767968995
87308.08630090671,87308.08630090671,0.053038967382968816,0.16043311785287262
87308.09130090672,87308.09130090672,0.0518392198353981,0.15995800598050364
87308.09630090672,87308.09630090672,0.05063929088527446,0.1594720336477266
87308.10130090672,87308.10130090672,0.13097222805186604,0.2612057023397687
87308.10630090673,87308.10630090673,0.05176064096968392,0.15846719899170983
87308.11130090673,87308.11130090673,0.05901504850286612,0.1579485351829267
87308.11630090674,87308.11630090674,0.05415987065036356,0.1574190069345849
87308.12130090674,87308.12130090674,0.05535891812554555,0.15687869056630566
87308.12630090675,87308.12630090675,0.056557429618709805,0.15632770412258049
87308.13130090675,87308.13130090675,0.5677791072124014,0.1557661599922426
87308.13630090676,87308.13630090676,0.4322668651571492,0.15519396308711414
87308.14130090676,87308.14130090676,0.06014856518354663,0.17707863156264458
