timestamp,unityTimestamp,localTimestamp,emg1,emg2,rms1,rms2,left_processed,right_processed
100.976690291,100.976690291,100.976690291,0.16829300203194858,0.16958745575044074,0.16829300203194858,0.16958745575044074,1.0,1.0
100.98169029099999,100.98169029099999,100.98169029099999,0.1680853900072211,0.16948204304333636,0.1681892280540063,0.16953475758978012,1.0,1.0
100.98669029099999,100.98669029099999,100.98669029099999,0.1678659523653814,0.16936466480740878,0.16808153857611446,0.16947807896340356,1.0,1.0
100.99169029099998,100.99169029099998,100.99169029099998,0.16763473556043024,0.16923535757673278,0.16796994924446823,0.1694174312176152,1.0,1.0
100.99669029099998,100.99669029099998,100.99669029099998,0.16739177797300406,0.29891235845405534,0.16785447431017167,0.2020681380317378,1.0,1.0
101.00169029099997,101.00169029099997,101.00169029099997,0.16713707484175702,0.16894102610071401,0.1677351208087618,0.19693430898738346,1.0,1.0
101.00669029099997,101.00669029099997,101.00669029099997,0.16687051277266318,0.16877586074201567,0.16761187843577838,0.193163152174986,1.0,1.0
101.01169029099997,101.01169029099997,101.01169029099997,0.16659255604067646,0.16859911485069642,0.16748480239918673,0.1902661573413924,1.0,1.0
101.01669029099996,101.01669029099996,101.01669029099996,0.16630289408357948,0.16841046253481423,0.16735389145232568,0.18796328510490967,1.0,1.0
101.02169029099996,101.02169029099996,101.02169029099996,0.1660014248192217,0.1682097889557817,0.16721913703285965,0.18608232103760278,1.0,1.0
101.02669029099995,101.02669029099995,101.02669029099995,0.16568848141715609,0.31192738623779775,0.16708056597028714,0.200808591882591,1.0,1.0
101.03169029099995,101.03169029099995,101.03169029099995,0.16536398700596697,0.1677732750910462,0.16693819189872236,0.19826599728381206,1.0,1.0
101.03669029099994,101.03669029099994,101.03669029099994,0.4751612124178915,0.16753726674883915,0.2075865893029139,0.19607329946045227,1.0,1.0
101.04169029099994,101.04169029099994,101.04169029099994,0.3906835388269396,0.16728946184737695,0.22564702591654662,0.19415887602354923,1.0,1.0
101.04669029099993,101.04669029099993,101.04669029099993,0.1643211825907325,0.16703002032886516,0.22208610572144824,0.1924692868370176,1.0,1.0
101.05169029099993,101.05169029099993,101.05169029099993,0.16395074553107875,0.16675890647077574,0.21890543367484774,0.1909638265026556,1.0,1.0
101.05669029099992,101.05669029099992,101.05669029099992,0.1635688772064167,0.1664760796992597,0.21868151289826904,0.1907926407917618,1.0,1.0
101.06169029099992,101.06169029099992,101.06169029099992,0.7939574729500092,0.1661815295163196,0.29232488731021705,0.19061109725087955,1.0,1.0
101.06669029099992,101.06669029099992,101.06669029099992,0.1627709670956398,0.16587536685190923,0.2921447464037103,0.19041922401077932,1.0,1.0
101.07169029099991,101.07169029099991,101.07169029099991,0.16235515572872464,0.16555769548317775,0.2919583272538538,0.19021705336362682,1.0,1.0
101.0766902909999,101.0766902909999,101.0766902909999,0.16192806959945172,0.16522842800487453,0.29176567331905406,0.17973457403033402,1.0,1.0
101.0816902909999,101.0816902909999,101.0816902909999,0.16148979920213946,0.16488764643695378,0.29156683233617553,0.17949915377192688,1.0,1.0
101.0866902909999,101.0866902909999,101.0866902909999,0.16104042589173476,0.16453542361663417,0.29136185987479596,0.17925292078040575,1.0,1.0
101.09169029099989,101.09169029099989,101.09169029099989,0.16057990020014773,0.16417169742589735,0.2911507941401808,0.17899588655192694,1.0,1.0
101.09669029099989,101.09669029099989,101.09669029099989,0.1601083650902416,0.16379660424876585,0.29093369034526395,0.17872808993559208,1.0,1.0
101.10169029099988,101.10169029099988,101.10169029099988,0.15962578955276846,0.1634101008848923,0.290710607229827,0.1784495744746719,1.0,1.0
101.10669029099988,101.10669029099988,101.10669029099988,0.2054408360898556,0.16301224975632783,0.2922922102487864,0.16560161332406662,1.0,1.0
101.11169029099987,101.11169029099987,101.11169029099987,0.1586277370104105,0.16260304557782632,0.2920587793476326,0.16527896644101217,1.0,1.0
101.11669029099987,101.11669029099987,101.11669029099987,0.15811236865397962,0.1621825833818575,0.2697214573452812,0.1649448094378255,1.0,1.0
101.12169029099987,101.12169029099987,101.12169029099987,0.157586274103217,0.16175099118089542,0.25448409074964673,0.16459918394210415,1.0,1.0
101.12669029099986,101.12669029099986,101.12669029099986,0.15704943535042012,0.16130823895509344,0.2541969602014671,0.16424211966146174,1.0,1.0
101.13169029099986,101.13169029099986,101.13169029099986,0.15650169805092107,0.30996211093999193,0.25390333393627446,0.17675469570588598,1.0,1.0
101.13669029099985,101.13669029099985,101.13669029099985,0.43440478870506477,0.16038915393563094,0.27310977538832815,0.1764025855205641,1.0,1.0
101.14169029099985,101.14169029099985,101.14169029099985,0.15537471048041118,0.39328624444493887,0.19157179176589323,0.19763345557032144,1.0,1.0
101.14669029099984,101.14669029099984,101.14669029099984,0.15479531562021237,0.15942610248534683,0.19115818456435293,0.1973014459203341,1.0,1.0
101.15169029099984,101.15169029099984,101.15169029099984,0.35802996595908276,0.15892807520954372,0.20713665241030965,0.1969604261571633,1.0,1.0
101.15669029099983,101.15669029099983,101.15669029099983,0.15360515148033438,0.15841918846983968,0.20674007339910583,0.19661045836352758,1.0,1.0
101.16169029099983,101.16169029099983,101.16169029099983,0.15299449551202374,0.1578994398495779,0.20633584389226248,0.19625160103868505,1.0,1.0
101.16669029099982,101.16669029099982,101.16669029099982,0.7146970323997828,0.15736895558804478,0.26995943178390003,0.19588391605778313,1.0,1.0
101.17169029099982,101.17169029099982,101.17169029099982,0.15174247174717723,0.156827756347398,0.26963973537957,0.19550747045307829,1.0,1.0
101.17669029099982,101.17669029099982,101.17669029099982,0.15110108589950447,0.15627577836355877,0.2693146672478557,0.1951223217924928,1.0,1.0
101.18169029099981,101.18169029099981,101.18169029099981,0.1504495402776539,0.15571312044886057,0.2689843061635502,0.19472853575487475,1.0,1.0
101.1866902909998,101.1866902909998,101.1866902909998,0.149788125011396,0.15514007571913876,0.26667764443445047,0.1943261902895685,1.0,1.0
101.1916902909998,101.1916902909998,101.1916902909998,0.5960515792279695,0.15455642621930893,0.30290119911540747,0.19391535366201365,1.0,1.0
101.1966902909998,101.1966902909998,101.1966902909998,0.1484352069704644,0.1539622728324736,0.3025949925597559,0.19349609512809768,1.0,1.0
101.20169029099979,101.20169029099979,101.20169029099979,0.1477439616453006,0.1533577610727192,0.30228448074338166,0.19306848542201033,1.0,1.0
101.20669029099979,101.20669029099979,101.20669029099979,0.14704284114519275,0.15274280681491814,0.301969740698561,0.1926325936350872,1.0,1.0
101.21169029099978,101.21169029099978,101.21169029099978,0.14633220543137276,0.2140844013175086,0.3016508662359606,0.18430149869819126,1.0,1.0
101.21669029099978,101.21669029099978,101.21669029099978,0.14561183967079058,0.1514824357250452,0.2837678638668527,0.18382990208195782,1.0,1.0
101.22169029099977,101.22169029099977,101.22169029099977,0.14488198733623178,0.1508370240300823,0.2834207008378325,0.15983832928541475,1.0,1.0
101.22669029099977,101.22669029099977,101.22669029099977,0.14414252028157315,0.25392697458423374,0.28306935711827913,0.1673011675108464,1.0,1.0
101.23169029099977,101.23169029099977,101.23169029099977,0.1433936484719992,0.3051799558446505,0.27092762605158305,0.17953265071558172,1.0,1.0
101.23669029099976,101.23669029099976,101.23669029099976,0.1426356091974404,0.1488403496901297,0.27055254011200985,0.179019617149184,1.0,1.0
101.24169029099976,101.24169029099976,101.24169029099976,0.14186812090404546,0.14815486145494547,0.27017333318733056,0.1784982498261135,1.0,1.0
101.24669029099975,101.24669029099975,101.24669029099975,0.14109159989338574,0.14745972236950472,0.20570201003032523,0.17796863919560896,1.0,1.0
101.25169029099975,101.25169029099975,101.25169029099975,0.1403059014555634,0.14675476443449223,0.20519396907858484,0.1774308668745122,1.0,1.0
101.25669029099974,101.25669029099974,101.25669029099974,0.13951112631026596,0.14604008159759468,0.2046803690122604,0.17688502389393898,1.0,1.0
101.26169029099974,101.26169029099974,101.26169029099974,0.6611252458550811,0.1453156851975967,0.2603790964489452,0.17633119748995701,1.0,1.0
101.26669029099973,101.26669029099973,101.26669029099973,0.8997097675722014,0.14458207569348702,0.34203413255765686,0.17576948555735802,1.0,1.0
101.27169029099973,101.27169029099973,101.27169029099973,0.13707352098714023,0.14383881161982537,0.3097689895719829,0.17519997640055698,1.0,1.0
101.27669029099972,101.27669029099972,101.27669029099972,0.2925275275371414,0.1430861135998898,0.31611396027637173,0.17462276522218384,1.0,1.0
101.28169029099972,101.28169029099972,101.28169029099972,0.1354047469373528,0.14232422248258514,0.31576838242178246,0.17403795267942032,1.0,1.0
101.28669029099972,101.28669029099972,101.28669029099972,0.13455751439170738,0.14155304881976796,0.3154202423893726,0.173445640648947,1.0,1.0
101.29169029099971,101.29169029099971,101.29169029099971,0.1337018183521149,0.1407727114492223,0.31506962829942264,0.168693336702148,1.0,1.0
101.2966902909997,101.2966902909997,101.2966902909997,0.13283781769715092,0.13998336800040234,0.3147166392949786,0.16807131755351878,1.0,1.0
101.3016902909997,101.3016902909997,101.3016902909997,0.13196546298838632,0.1391849499345499,0.31436136669775183,0.16744180463239378,1.0,1.0
101.3066902909997,101.3066902909997,101.3066902909997,0.13108491194945524,0.13837761354262862,0.31400391020066604,0.1587564137533297,1.0,1.0
101.31169029099969,101.31169029099969,101.31169029099969,0.13019612073226602,0.13756129554432328,0.31364436283119157,0.1434063037116013,1.0,0.7350999458651873
101.31669029099969,101.31669029099969,101.31669029099969,0.12929961332460474,0.1367365527111083,0.3132828249329304,0.14265108706627116,1.0,0.6904489845143316
101.32169029099968,101.32169029099968,101.32169029099968,0.1283949544832064,0.13590289414786672,0.3129193940713021,0.1418866307840643,1.0,0.6452517445934385
101.32669029099968,101.32669029099968,101.32669029099968,0.12748255594095964,0.1350607545774053,0.3125541670538863,0.14111300738011823,1.0,0.5995125134426025
101.33169029099967,101.33169029099967,101.33169029099967,0.12656242369038545,0.1342101250769015,0.31218724535436104,0.14033030018912415,1.0,0.55323621809051
101.33669029099967,101.33669029099967,101.33669029099967,0.12563450899239276,0.13335093566071832,0.3118187267945618,0.13953858270816893,1.0,0.5064272039334194
101.34169029099967,101.34169029099967,101.34169029099967,0.12469911047840056,0.13248349878505042,0.2662421326917084,0.13873794679925205,1.0,0.4590909021633122
101.34669029099966,101.34669029099966,101.34669029099966,0.12375631336285806,0.13160789241511062,0.14577292503153863,0.13792845673737517,0.4134523604740809,0.4112311129355906
101.35169029099966,101.35169029099966,101.35169029099966,0.12280604286959844,0.1307240172209849,0.1449758826420551,0.13711020015790498,0.3336631273803248,0.36285301754941734
101.35669029099965,101.35669029099965,101.35669029099965,0.6766053911267498,0.6462955178325737,0.2104326801052233,0.2088677171475415,1.0,1.0
101.36169029099965,101.36169029099965,101.36169029099965,0.12088381577116578,0.128932205186977,0.20987928928352254,0.20832350165846486,1.0,1.0
101.36669029099964,101.36669029099964,101.36669029099964,0.11991202150710464,0.29288490895626595,0.20932364673890022,0.21796261229796662,1.0,1.0
101.37169029099964,101.37169029099964,101.37169029099964,0.11893318252473231,0.12710876148642983,0.2087658902664582,0.21743718729697367,1.0,1.0
101.37669029099963,101.37669029099963,101.37669029099963,0.11794746403467228,0.12618541278866197,0.20820615827251884,0.21690872242112239,1.0,1.0
101.38169029099963,101.38169029099963,101.38169029099963,0.11695502878640023,0.12525453307390338,0.2076445979339318,0.2163773540549436,1.0,1.0
101.38669029099962,101.38669029099962,101.38669029099962,0.11595593307562056,0.1243161675984099,0.20708135314003837,0.2158432149677309,1.0,1.0
101.39169029099962,101.39169029099962,101.39169029099962,0.11495012000222468,0.12337023338512414,0.20651656854350445,0.21530643853809925,1.0,1.0
101.39669029099962,101.39669029099962,101.39669029099962,0.1139378018538045,0.12241695050418414,0.20595037661004775,0.21476714491205223,1.0,1.0
101.40169029099961,101.40169029099961,101.40169029099961,0.1129191725825292,0.12145651939924394,0.2053829346022185,0.21422548197016672,1.0,1.0
101.4066902909996,101.4066902909996,101.4066902909996,0.1118942210471849,0.12048890831114163,0.2048143842372318,0.21368158021993208,1.0,1.0
101.4116902909996,101.4116902909996,101.4116902909996,0.12304401890308839,0.613499968835177,0.2046803445841011,0.2608791551768033,1.0,1.0
101.4166902909996,101.4166902909996,101.4166902909996,0.10982581582389983,0.5550941046224196,0.20411124039918271,0.2936062340360362,1.0,1.0
101.42169029099959,101.42169029099959,101.42169029099959,0.10878272918593875,0.11754427111254233,0.20354148676187064,0.293208405922544,1.0,1.0
101.42669029099959,101.42669029099959,101.42669029099959,0.10773353040440695,0.11654892466263914,0.20297122299231785,0.2928098490650864,1.0,1.0
101.43169029099958,101.43169029099958,101.43169029099958,0.10667872429282006,0.28225134403462065,0.20240060892006498,0.2994138832664637,1.0,1.0
101.43669029099958,101.43669029099958,101.43669029099958,0.10561822498769108,0.11453872053133717,0.11424109867052495,0.25369765445478326,0.0,1.0
101.44169029099957,101.44169029099957,101.44169029099957,0.10455213236750409,0.1135238363034407,0.11322949855116511,0.2532370611068327,0.0,1.0
101.44669029099957,101.44669029099957,101.44669029099957,0.10348059511449957,0.11250261199759952,0.11221186716923692,0.24404653932451767,0.0,1.0
101.45169029099957,101.45169029099957,101.45169029099957,0.31516351577520607,0.11147506234778112,0.1338485594590092,0.24356845367103697,0.0,1.0
101.45669029099956,101.45669029099956,101.45669029099956,0.10132156379504395,0.11044149162233857,0.13299470029988358,0.24309000784821494,0.0,1.0
101.46169029099956,101.46169029099956,101.46169029099956,0.10023430554692563,0.10940182496805775,0.13213863036971352,0.2426113264953204,0.0,1.0
101.46669029099955,101.46669029099955,101.46669029099955,0.09914202790786544,0.10835622300871962,0.13128053108181792,0.24213253775559868,0.0,1.0
101.47169029099955,101.47169029099955,101.47169029099955,0.09804483046832813,0.10730477884816542,0.13042059465222122,0.24165377538402133,0.0,1.0
101.47669029099954,101.47669029099954,101.47669029099954,0.09694280673464255,0.10624757810420614,0.12955900905507722,0.241175168782967,0.0,1.0
101.48169029099954,101.48169029099954,101.48169029099954,0.09583608770867645,0.10518475115816787,0.1286959608456884,0.24069684490707247,0.0,1.0
101.48669029099953,101.48669029099953,101.48669029099953,0.09472483860950655,0.10411647033178292,0.12783164801648306,0.24021893669367625,0.0,1.0
101.49169029099953,101.49169029099953,101.49169029099953,0.09360900251671841,0.10304263894651072,0.12626304351385634,0.18666778217265845,0.0,1.0
101.49669029099952,101.49669029099952,101.49669029099952,0.09248892105256921,0.10196364359337882,0.12539193285808772,0.1274227447437311,0.0,0.0
101.50169029099952,101.50169029099952,101.50169029099952,0.09136456945000881,0.10087942611487548,0.12452007659305363,0.1265268985705966,0.0,0.0
101.50669029099952,101.50669029099952,101.50669029099952,0.09023609449514654,0.09979013717261001,0.12364769275348883,0.12562825036273076,0.0,0.0
101.51169029099951,101.51169029099951,101.51169029099951,0.08910356648718486,0.4656445015337504,0.12277497864899312,0.15606054458656432,0.0,1.0
101.5166902909995,101.5166902909995,101.5166902909995,0.08796714611442061,0.09759668164112158,0.1219021470950514,0.15533920363853806,0.0,1.0
101.5216902909995,101.5216902909995,101.5216902909995,0.0868268944619136,0.09649272731190559,0.12102941189062395,0.1546179719518244,0.0,1.0
101.5266902909995,101.5266902909995,101.5266902909995,0.08568299737553808,0.0953841707419568,0.1201569908378853,0.1538970391060552,0.0,1.0
101.53169029099949,101.53169029099949,101.53169029099949,0.0845354946695117,0.09427102826129048,0.09314687573218737,0.15317659652623386,0.0,1.0
101.53669029099949,101.53669029099949,101.53669029099949,0.08338453295418738,0.48935784141819394,0.09202865327738818,0.19408163383282132,0.0,1.0
101.54169029099948,101.54169029099948,101.54169029099948,0.08223029109772659,0.09203163432283937,0.09090629555699721,0.19351743330209115,0.0,1.0
101.54669029099948,101.54669029099948,101.54669029099948,0.08107278377384196,0.09090555922041783,0.08977991413781476,0.19295509540786462,0.0,1.0
101.55169029099947,101.55169029099947,101.55169029099947,0.0799121492289604,0.08977536674869517,0.08864962300199121,0.1923947768282931,0.0,1.0
101.55669029099947,101.55669029099947,101.55669029099947,0.07874857108617325,0.08864125999677573,0.08751554155007502,0.19183663745713203,0.0,1.0
101.56169029099946,101.56169029099946,101.56169029099946,0.08188350125365584,0.08750330336664727,0.08662558523435024,0.1912808347295959,0.0,1.0
101.56669029099946,101.56669029099946,101.56669029099946,0.07641284920448033,0.27116135228991556,0.08548757247001185,0.20126195047421444,0.0,1.0
101.57169029099946,101.57169029099946,101.57169029099946,0.07524098569341911,0.08521611812324771,0.08434622150880217,0.20074018728911394,0.0,1.0
101.57669029099945,101.57669029099945,101.57669029099945,0.30236068220430723,0.08406721776509386,0.11087615358773512,0.20022123344781373,0.0,1.0
101.58169029099945,101.58169029099945,101.58169029099945,0.07288981895699595,0.5398264336447987,0.11001755090307595,0.2401370177916946,0.0,1.0
101.58669029099944,101.58669029099944,101.58669029099944,0.5000721339055161,0.08175933723512181,0.16499836561055195,0.23971064780929324,1.0,1.0
101.59169029099944,101.59169029099944,101.59169029099944,0.07052947470579098,0.08060058014244156,0.16443584077612014,0.21051288061557832,1.0,1.0
101.59669029099943,101.59669029099943,101.59669029099943,0.06934614474038629,0.07943871976741634,0.16387819422951597,0.21003514057355188,1.0,1.0
101.60169029099943,101.60169029099943,101.60169029099943,0.0681609093805274,0.07827396000719411,0.16332559518269624,0.2095608698569382,1.0,1.0
101.60669029099942,101.60669029099942,101.60669029099942,0.06697383346341029,0.07710633489254462,0.16277820780859298,0.20909019848733582,1.0,1.0
101.61169029099942,101.61169029099942,101.61169029099942,0.06578507461875172,0.07593602194679464,0.16223619840791068,0.20862325947674776,1.0,1.0
101.61669029099941,101.61669029099941,101.61669029099941,0.064594702576565,0.07476305702342052,0.16169972952330933,0.17001783877972407,1.0,1.0
101.62169029099941,101.62169029099941,101.62169029099941,0.06340292602758564,0.07358770879015113,0.16116896233096203,0.169455447172351,1.0,1.0
101.6266902909994,101.6266902909994,101.6266902909994,0.06220978533554433,0.07240996114919833,0.16064405759008007,0.16889748351414138,1.0,1.0
101.6316902909994,101.6316902909994,101.6316902909994,0.061015409809748525,0.07122994592272135,0.1601251737828759,0.16834411329918952,1.0,1.0
101.6366902909994,101.6366902909994,101.6366902909994,0.059819954877751526,0.07004784983476348,0.15961246623020267,0.1677954997929964,1.0,1.0
101.64169029099939,101.64169029099939,101.64169029099939,0.058623510590090286,0.06886373482561477,0.15897130995751846,0.1672518052754888,1.0,1.0
101.64669029099939,101.64669029099939,101.64669029099939,0.09894934844188097,0.06767774361412773,0.1597463004789306,0.15383076331872883,1.0,1.0
101.65169029099938,101.65169029099938,101.65169029099938,0.05622814878528913,0.06648994964438829,0.15925657110755664,0.15325256655829664,1.0,1.0
101.65669029099938,101.65669029099938,101.65669029099938,0.08140069322791726,0.06530055086644031,0.14164360596447498,0.15267990440542165,8.01159013307435e-05,1.0
101.66169029099937,101.66169029099937,101.66169029099937,0.053830302359649536,0.06410958279521252,0.1411097430890358,0.07317611952188241,0.0,0.0
101.66669029099937,101.66669029099937,101.66669029099937,0.052630745365718046,0.06291722754648496,0.0667500982037637,0.0720025606269939,0.0,0.0
101.67169029099936,101.67169029099936,101.67169029099936,0.05143092438259597,0.061723578613194066,0.06565056308972483,0.07082692215315442,0.0,0.0
101.67669029099936,101.67669029099936,101.67669029099936,0.0502309600925314,0.060528762442669116,0.06455337157414298,0.06964933026938364,0.0,0.0
101.68169029099936,101.68169029099936,101.68169029099936,0.050969028745780666,0.05933288823796036,0.06355417808312137,0.06846990494143639,0.0,0.0
101.68669029099935,101.68669029099935,101.68669029099935,0.05216891563072485,0.0581360589194903,0.06268085743392812,0.06728877162515608,0.0,0.0
101.69169029099935,101.69169029099935,101.69169029099935,0.053368595065917526,0.19957462504625748,0.061938865582904554,0.08158898980653301,0.0,0.0
101.69669029099934,101.69669029099934,101.69669029099934,0.05456793195072862,0.05574012935723011,0.06133308278958141,0.08063252269078615,0.0,0.0
101.70169029099934,101.70169029099934,101.70169029099934,0.05576680380316312,0.05454123008707816,0.06086766284794586,0.07968110438731293,0.0,0.0
101.70669029099933,101.70669029099933,101.70669029099933,0.05696510466544335,0.053341884729143536,0.060545914316734534,0.07873508133883944,0.0,0.0
101.71169029099933,101.71169029099933,101.71169029099933,0.05816272587910514,0.052142209967401834,0.060370184225444705,0.07779480758663677,0.0,0.0
101.71669029099932,101.71669029099932,101.71669029099932,0.0593595001355926,0.0509423131125489,0.06034177116092411,0.07686064150373584,0.0,0.0
101.72169029099932,101.72169029099932,101.72169029099932,0.060555344814841684,0.05034946898377835,0.06046088784347244,0.07595795977490966,0.0,0.0
101.72669029099931,101.72669029099931,101.72669029099931,0.06175017355181249,0.5951288394642338,0.057287877054040336,0.16619112585965873,0.0,1.0
101.73169029099931,101.73169029099931,101.73169029099931,0.0629437993051891,0.052657455930048544,0.05772279168193269,0.16588093231541987,0.0,1.0
101.7366902909993,101.7366902909993,101.7366902909993,0.06413612103981356,0.05385700529385392,0.056346084622702984,0.16562384987696674,0.0,1.0
101.7416902909993,101.7416902909993,101.7416902909993,0.06532701716011884,0.0550561646353664,0.05710079780301238,0.1654201652284397,0.0,1.0
101.7466902909993,101.7466902909993,101.7466902909993,0.06651642571591591,0.056254832887379994,0.057999168791521255,0.16527010576029763,0.0,1.0
101.75169029099929,101.75169029099929,101.75169029099929,0.06770417197790136,0.06217970605736171,0.05903450908604375,0.16528079165031553,0.0,1.0
101.75669029099929,101.75669029099929,101.75669029099929,0.0688901369470788,0.058650164886497096,0.060199602275083954,0.16523845500050308,0.0,1.0
101.76169029099928,101.76169029099928,101.76169029099928,0.07007418049646126,0.05984657560918903,0.06138832477872681,0.16525003274597644,0.0,1.0
101.76669029099928,101.76669029099928,101.76669029099928,0.07125626083935732,0.0610420227529542,0.06257609450547785,0.1653155127997336,0.0,1.0
101.77169029099927,101.77169029099927,101.77169029099927,0.07243620786217278,0.0622363621902791,0.06376278250627378,0.15837274745283428,0.0,1.0
101.77669029099927,101.77669029099927,101.77669029099927,0.07361391313228297,0.06342947955259716,0.06494826207083312,0.15855345530524165,0.0,1.0
101.78169029099926,101.78169029099926,101.78169029099926,0.0747892263238007,0.06462123622950235,0.06613240502206451,0.15879002043188153,0.0,1.0
101.78669029099926,101.78669029099926,101.78669029099926,0.07596209180676128,0.06581154882053256,0.06731508752972473,0.15908215894464287,0.0,1.0
101.79169029099926,101.79169029099926,101.79169029099926,0.07713235037276468,0.06700027395284987,0.06849618280353796,0.15942952192138266,0.0,1.0
101.79669029099925,101.79669029099925,101.79669029099925,0.07829990261445989,0.0681873033644457,0.06967556845461395,0.1598316982868519,0.0,1.0
101.80169029099925,101.80169029099925,101.80169029099925,0.09737411824460607,0.06937251993631702,0.07223647215476044,0.16027636794212566,0.0,1.0
101.80669029099924,101.80669029099924,101.80669029099924,0.5466343470527736,0.0705557512424409,0.15380298924150923,0.062157061346063996,1.0,0.0
101.81169029099924,101.81169029099924,101.81169029099924,0.08178511908459117,0.07173700995640815,0.15435604859923083,0.0633390654214061,1.0,0.0
101.81669029099923,101.81669029099923,101.81669029099923,0.08294062127148825,0.07291603221612608,0.15491496467045165,0.06452013545700071,1.0,0.0
101.82169029099923,101.82169029099923,101.82169029099923,0.22492854546640073,0.07409264106009623,0.16399382074032332,0.06570012569676865,1.0,0.0
101.82669029099922,101.82669029099922,101.82669029099922,0.08524165107584925,0.07526709867057471,0.16453443333468695,0.0668789177283461,1.0,0.0
101.83169029099922,101.83169029099922,101.83169029099922,0.08638697327641465,0.07643892632149447,0.1650803081633511,0.06779621477083048,1.0,0.0
101.83669029099921,101.83669029099921,101.83669029099921,0.0875286649857537,0.07760811655816768,0.1656312822428391,0.06897662906309915,1.0,0.0
101.84169029099921,101.84169029099921,101.84169029099921,0.08866657322346658,0.07877452366194806,0.16618719057012452,0.07015528253299713,1.0,0.0
101.8466902909992,101.8466902909992,101.8466902909992,0.08980060201441181,0.0799380436929552,0.1667478654973577,0.0713320496709925,1.0,0.0
101.8516902909992,101.8516902909992,101.8516902909992,0.09093063146935343,0.08109855496968268,0.16731313940796047,0.07250680649244684,1.0,0.0
101.8566902909992,101.8566902909992,101.8566902909992,0.0920566460054353,0.08225601589140373,0.16788284675702514,0.07367943449402266,1.0,0.0
101.86169029099919,101.86169029099919,101.86169029099919,0.09317837452913179,0.08341018957583532,0.16845681658619205,0.074849808212426,1.0,0.0
101.86669029099919,101.86669029099919,101.86669029099919,0.0942958777662258,0.08456109404786444,0.1690348813931808,0.07601781012508092,1.0,0.0
101.87169029099918,101.87169029099918,101.87169029099918,0.09540882786925968,0.08570844597704817,0.16961686660733843,0.07718331276150685,1.0,0.0
101.87669029099918,101.87669029099918,101.87669029099918,0.0965173774314816,0.08685233734833131,0.1702026058114056,0.07834620302868973,1.0,0.0
101.88169029099917,101.88169029099917,101.88169029099917,0.6694570286472502,0.08799247285971577,0.23745971062229354,0.07950635557215531,1.0,0.0
101.88669029099917,101.88669029099917,101.88669029099917,0.09872021568269933,0.08912879604699202,0.1957566088136938,0.08066365254610382,1.0,0.0
101.89169029099916,101.89169029099916,101.89169029099916,0.09981442837074597,0.09026125015345657,0.19627858274578422,0.08181797332915154,1.0,0.0
101.89669029099916,101.89669029099916,101.89669029099916,0.10090364265699585,0.09138966462585857,0.19680366345034855,0.08296920181659269,1.0,0.0
101.90169029099916,101.90169029099916,101.90169029099916,0.10198770124858597,0.09251388670887445,0.19031479707973134,0.08411722288570056,1.0,0.0
101.90669029099915,101.90669029099915,101.90669029099915,0.10306669139450957,0.09363396401723485,0.19086516110805543,0.08526191194319155,1.0,0.0
101.91169029099915,101.91169029099915,101.91169029099915,0.10414024593875332,0.09474957197827673,0.19141816744845358,0.08640315025514861,1.0,0.0
101.91669029099914,101.91669029099914,101.91669029099914,0.10520844159792896,0.09586075024265697,0.1919736613214271,0.08754082392861041,1.0,0.0
101.92169029099914,101.92169029099914,101.92169029099914,0.10627116152281339,0.09696738013492984,0.19253148846725687,0.08867482058681621,1.0,0.0
101.92669029099913,101.92669029099913,101.92669029099913,0.264073326804002,0.09806929041294182,0.2022938083935501,0.08980502345021747,1.0,0.0
101.93169029099913,101.93169029099913,101.93169029099913,0.10837958761798468,0.09916641785781818,0.20283033456294988,0.09093131975661857,1.0,0.0
101.93669029099912,101.93669029099912,101.93669029099912,0.109425053912997,0.10025858106682735,0.20336877376037585,0.09205358817357871,1.0,0.0
101.94169029099912,101.94169029099912,101.94169029099912,0.1104646056151638,0.10134574201433384,0.20390897936741986,0.09317171956576081,1.0,0.0
101.94669029099911,101.94669029099911,101.94669029099911,0.11149805150213996,0.10242771788304242,0.20445079676900207,0.09428559274672109,1.0,0.0
101.95169029099911,101.95169029099911,101.95169029099911,0.11252533800062338,0.10350444243724738,0.2049940791901752,0.09539509941751909,1.0,0.0
101.9566902909991,101.9566902909991,101.9566902909991,0.12162242614771919,0.10457594892441131,0.2058272288905569,0.09650012968793953,1.0,0.0
101.9616902909991,101.9616902909991,101.9616902909991,0.1145612797147901,0.10564192893781067,0.12318409598263298,0.0976005706778782,0.0,0.0
101.9666902909991,101.9666902909991,101.9666902909991,0.11556938470554341,0.10670217871586885,0.12409667243366052,0.09869630027396128,0.0,0.0
101.97169029099909,101.97169029099909,101.97169029099909,0.11657124302075542,0.10775702648312475,0.12500641991867384,0.09978722315554321,0.0,0.0
101.97669029099909,101.97669029099909,101.97669029099909,0.6192991919833157,0.10880596752167795,0.1973853503340417,0.10087322063158301,1.0,0.0
101.98169029099908,101.98169029099908,101.98169029099908,0.11855457306042955,0.10984901661067423,0.1979629573953559,0.10195418501272953,1.0,0.0
101.98669029099908,101.98669029099908,101.98669029099908,0.11953608999178682,0.1108861613334316,0.19854084182274712,0.10303000625528987,1.0,0.0
101.99169029099907,101.99169029099907,101.99169029099907,0.12051055521046734,0.11191713156529486,0.19911884909519373,0.1041005757582475,1.0,0.0
101.99669029099907,101.99669029099907,101.99669029099907,0.1214779705969858,0.11294191105589135,0.19969682305259795,0.10516578275722867,1.0,0.0
102.00169029099906,102.00169029099906,102.00169029099906,0.12243832418469165,0.11396047208178119,0.20027461172951963,0.10622552253164028,1.0,0.0
102.00669029099906,102.00669029099906,102.00669029099906,0.5626275459732009,0.11497260041569587,0.2356604754743902,0.10727968683485985,1.0,0.0
102.01169029099906,102.01169029099906,102.01169029099906,0.1243371084508323,0.5573181105194945,0.23615240533640564,0.17408912896854692,1.0,1.0
102.01669029099905,102.01669029099905,102.01669029099905,0.12527537916787188,0.11697723172172635,0.23664417050454042,0.17473985787166996,1.0,1.0
102.02169029099905,102.02169029099905,102.02169029099905,0.12620612920212015,0.11796955154429473,0.2371356379921337,0.1753906608351961,1.0,1.0
102.02669029099904,102.02669029099904,102.02669029099904,0.12712922544521454,0.11895504473100739,0.23762667639709917,0.17604136726341066,1.0,1.0
102.03169029099904,102.03169029099904,102.03169029099904,0.5118008878748802,0.11993373341482966,0.2684144643207902,0.17669181125163078,1.0,1.0
102.03669029099903,102.03669029099903,102.03669029099903,0.12895230663178897,0.12090535310231527,0.268628213958143,0.17734181576997446,1.0,1.0
102.04169029099903,102.04169029099903,102.04169029099903,0.12985207442377195,0.1218699423667215,0.269062626512367,0.177991218117677,1.0,1.0
102.04669029099902,102.04669029099902,102.04669029099902,0.1307437622272537,0.455762709383649,0.26949638221735167,0.2096467671993541,1.0,1.0
102.05169029099902,102.05169029099902,102.05169029099902,0.13162742203066005,0.12377733527933804,0.26992935696016934,0.21019894206539963,1.0,1.0
102.05669029099901,102.05669029099901,102.05669029099901,0.13250299738548155,0.12472010438274839,0.22358098073011454,0.21075072505740147,1.0,1.0
102.06169029099901,102.06169029099901,102.06169029099901,0.13337018223669617,0.12565527450219494,0.22410205513115924,0.21130196570243623,1.0,1.0
102.066690290999,102.066690290999,102.066690290999,0.13422911437252724,0.12658295552085422,0.22462138647049712,0.21185251874956362,1.0,1.0
102.071690290999,102.071690290999,102.071690290999,0.13507963485713761,0.12750298854010486,0.22513884465964237,0.21240224265491556,1.0,1.0
102.076690290999,102.076690290999,102.076690290999,0.13592160750350138,0.128415234982147,0.22565429533370718,0.21295099205274395,1.0,1.0
102.08169029099899,102.08169029099899,102.08169029099899,0.1367549964230554,0.12931964755935396,0.2261676040376839,0.213498621527713,1.0,1.0
102.08669029099899,102.08669029099899,102.08669029099899,0.13757968492026101,0.13021610533299707,0.18041739385264335,0.21404498907202388,1.0,1.0
102.09169029099898,102.09169029099898,102.09169029099898,0.13839565936043505,0.13110458169111483,0.1810560372621507,0.16576132174320474,1.0,1.0
102.09669029099898,102.09669029099898,102.09669029099898,0.13920276989822816,0.1319849252726327,0.18169068987341816,0.1664642229457301,1.0,1.0
102.10169029099897,102.10169029099897,102.10169029099897,0.1400010179168838,0.7834192283078943,0.18232121491965067,0.25534220574135735,1.0,1.0
102.10669029099897,102.10669029099897,102.10669029099897,0.14079022364584515,0.13372099727512943,0.18294747430416777,0.255798416112557,1.0,1.0
102.11169029099896,102.11169029099896,102.11169029099896,0.1415703622571513,0.13457650995949197,0.1354664331828395,0.25625329407555225,0.0,1.0
102.11669029099896,102.11669029099896,102.11669029099896,0.14234126138476044,0.25437252388289633,0.13630178135653556,0.26229030768536116,0.0,1.0
102.12169029099896,102.12169029099896,102.12169029099896,0.14310298601203117,0.13626198028224812,0.1371285238810748,0.26273255561845515,0.0,1.0
102.12669029099895,102.12669029099895,102.12669029099895,0.14385544479602008,0.13709188684061144,0.13794658627186196,0.23920818217110448,0.0,1.0
102.13169029099895,102.13169029099895,102.13169029099895,0.14459851090791379,0.13791307769546807,0.13875588315259663,0.2396909545321135,0.0,1.0
102.13669029099894,102.13669029099894,102.13669029099894,0.14533208010204451,0.1387254428343767,0.1395563262051301,0.24017151462608466,0.0,1.0
102.14169029099894,102.14169029099894,102.14169029099894,0.14605606359546713,0.1395288864844084,0.14034784001390893,0.2406497409563792,0.0,1.0
102.14669029099893,102.14669029099893,102.14669029099893,0.1467704980360717,0.14032342987758448,0.14113034380795825,0.2411255100438065,0.0,1.0
102.15169029099893,102.15169029099893,102.15169029099893,0.14747525609193343,0.1411089415450925,0.14190375842888284,0.24159869965496136,0.026123104199612193,1.0
102.15669029099892,102.15669029099892,102.15669029099892,0.14817027417958667,0.14188534939136027,0.14266800912958766,0.24206919034078356,0.10262967161080987,1.0
102.16169029099892,102.16169029099892,102.16169029099892,0.14885548855922326,0.14265258120314608,0.14342301957224668,0.24253686243988312,0.17821122786477087,1.0
102.16669029099891,102.16669029099891,102.16669029099891,0.1495308346262695,0.14341056398799604,0.14416871659032154,0.24300159850942668,0.2528604485054053,1.0
102.17169029099891,102.17169029099891,102.17169029099891,0.15019615774991316,0.14415914015325926,0.14490501819421112,0.24346327705625218,0.3265691258294811,1.0
102.1766902909989,102.1766902909989,102.1766902909989,0.1508515248281491,0.14489836014455887,0.14563185609643267,0.24392178442495535,0.399330423806759,1.0
102.1816902909989,102.1816902909989,102.1816902909989,0.15149669501713908,0.14562798509395677,0.14634914668029875,0.14988062196145874,0.4711359718518666,1.0
102.1866902909989,102.1866902909989,102.1866902909989,0.1521318655254315,0.14634818855067008,0.14705683025169777,0.15061617206758265,0.5419797941880509,1.0
102.19169029099889,102.19169029099889,102.19169029099889,0.15275666332927362,0.1470586066842538,0.14775482477331714,0.15134379269144627,0.6118536783358444,1.0
102.19669029099889,102.19669029099889,102.19669029099889,0.2119404582439794,0.14775945640847976,0.1528809861969356,0.14221607096054542,1.0,0.6647293616168922
102.20169029099888,102.20169029099888,102.20169029099888,0.15397559041788972,0.14845046289128502,0.15353980609432769,0.14297656846785142,1.0,0.7096925453815972
102.20669029099888,102.20669029099888,102.20669029099888,0.15456945484236695,0.14913162676514785,0.15418918579551583,0.14372779018807905,1.0,0.7541073132541254
102.21169029099887,102.21169029099887,102.21169029099887,0.1551528847690558,0.14980289874900163,0.15482905261850882,0.1444696625229115,1.0,0.7979693138531623
102.21669029099887,102.21669029099887,102.21669029099887,0.5595770725251127,0.15046414238264147,0.2054807860763549,0.14520210998060015,1.0,0.8412740838513038
102.22169029099886,102.22169029099886,102.22169029099886,0.15628816280967558,0.15111545608383614,0.2059507330750379,0.14592506955389378,1.0,0.8840178980468373
102.22669029099886,102.22669029099886,102.22669029099886,0.15683991550881987,0.15175662747649865,0.2064140940060455,0.14663846353348325,1.0,0.9261961620026834
102.23169029099886,102.23169029099886,102.23169029099886,0.1573809233849621,0.169147197115803,0.20687077112830415,0.14848073627316255,1.0,1.0
102.23669029099885,102.23669029099885,102.23669029099885,0.15791110760471483,0.1530081826610656,0.20732066691932832,0.1491694749892008,1.0,1.0
102.24169029099885,102.24169029099885,102.24169029099885,0.15843069151081898,0.20177526659149364,0.20776369847262666,0.1533761747267582,1.0,1.0
102.24669029099884,102.24669029099884,102.24669029099884,0.15893923824259754,0.15421863262994948,0.20819976605977203,0.15403019435485393,1.0,1.0
102.25169029099884,102.25169029099884,102.25169029099884,0.15943701591564294,0.15480828143587427,0.20862879080419802,0.15467477143172603,1.0,1.0
102.25669029099883,102.25669029099883,102.25669029099883,0.15992387175229578,0.1553874704197414,0.20905068462157927,0.15530982942777855,1.0,1.0
102.26169029099883,102.26169029099883,102.26169029099883,0.17165330497589368,0.15595613032059916,0.21002211615090197,0.15593530197092573,1.0,1.0
102.26669029099882,102.26669029099882,102.26669029099882,0.16086447169815793,0.156514091974302,0.21042841747648514,0.15655110250064883,1.0,1.0
102.27169029099882,102.27169029099882,102.27169029099882,0.16131814170599607,0.5681600041612794,0.21082736521240986,0.20816332524536615,1.0,1.0
102.27669029099881,102.27669029099881,102.27669029099881,0.1617606730615893,0.15759805707379712,0.20802923536536577,0.20861384935309243,1.0,1.0
102.28169029099881,102.28169029099881,102.28169029099881,0.16219202648551628,0.15812392157643215,0.20841910530199131,0.2090576243695606,1.0,1.0
102.2866902909988,102.2866902909988,102.2866902909988,0.1626122579263997,0.1586390674165648,0.20880125199214206,0.20949456384979998,1.0,1.0
102.2916902909988,102.2916902909988,102.2916902909988,0.2992693800303506,0.15914322841901216,0.2183828561133186,0.20992457204909173,1.0,1.0
102.2966902909988,102.2966902909988,102.2966902909988,0.16341870448003176,0.15963653195812358,0.1725971325054249,0.21034756645142438,1.0,1.0
102.30169029099879,102.30169029099879,102.30169029099879,0.16380504406981125,0.16011894902888238,0.1730322269502513,0.2107634598553658,1.0,1.0
102.30669029099879,102.30669029099879,102.30669029099879,0.1641798318372857,0.16059018841538172,0.17345725033475792,0.21117216181286733,1.0,1.0
102.31169029099878,102.31169029099878,102.31169029099878,0.16454330185290775,0.16105046578262383,0.1738721560224408,0.21077615333455435,1.0,1.0
102.31669029099878,102.31669029099878,102.31669029099878,0.16489534180456175,0.1614996616669861,0.17427689571522514,0.21117173487908691,1.0,1.0
102.32169029099877,102.32169029099877,102.32169029099877,0.1652358547873571,0.5264936859586734,0.17467140324350455,0.24366708447897922,1.0,1.0
102.32669029099877,102.32669029099877,102.32669029099877,0.1655648513190912,0.16236449405101894,0.1750556383546484,0.24399759363746398,1.0,1.0
102.33169029099876,102.33169029099876,102.33169029099876,0.16588242358687008,0.16536424271758732,0.17542955151695225,0.24443006924046806,1.0,1.0
102.33669029099876,102.33669029099876,102.33669029099876,0.16618827302703248,0.16318451518380497,0.17579308470160432,0.24474742848683922,1.0,1.0
102.34169029099876,102.34169029099876,102.34169029099876,0.16648245893371214,0.1635774592566883,0.17548199517435448,0.24505817301803892,1.0,1.0
102.34669029099875,102.34669029099875,102.34669029099875,0.27514263911900066,0.1639589447863764,0.1841414170706505,0.24536223288180825,1.0,1.0
102.35169029099875,102.35169029099875,102.35169029099875,0.1670358839223511,0.16432926131041078,0.18445975634383663,0.20424255203529262,1.0,1.0
102.35669029099874,102.35669029099874,102.35669029099874,0.16729514405829593,0.1646881188714207,0.18476802639441384,0.2045918726841011,1.0,1.0
102.36169029099874,102.36169029099874,102.36169029099874,0.16754255629632142,0.16503539185567237,0.18506617599486822,0.20493274138794362,1.0,1.0
102.36669029099873,102.36669029099873,102.36669029099873,0.16777812803944453,0.16537107669110276,0.18535415185839424,0.20526508701853405,1.0,1.0
102.37169029099873,102.37169029099873,102.37169029099873,0.1680022726094257,0.16569556796135418,0.17470710982178433,0.20558887209520113,1.0,1.0
102.37669029099872,102.37669029099872,102.37669029099872,0.1682143976842421,0.16600827484850605,0.1749913566027685,0.2059040241005187,1.0,1.0
102.38169029099872,102.38169029099872,102.38169029099872,0.16841461316503936,0.16630929427774943,0.1752646191540904,0.20621047769476353,1.0,1.0
102.38669029099871,102.38669029099871,102.38669029099871,0.16860315101231882,0.1665988436838316,0.175526884156106,0.20650819352375932,1.0,1.0
102.39169029099871,102.39169029099871,102.39169029099871,0.16877956633962754,0.16687647525989038,0.17577809818311277,0.20679710003792176,1.0,1.0
102.3966902909987,102.3966902909987,102.3966902909987,0.1689446162386358,0.16714292361768615,0.1760182601360455,0.20707716942338555,1.0,1.0
102.4016902909987,102.4016902909987,102.4016902909987,0.16909747036340378,0.167397361209639,0.17624732501465146,0.1652501022556462,1.0,1.0
102.4066902909987,102.4066902909987,102.4066902909987,0.16923841136954318,0.4828476817965418,0.17646526447995667,0.20057747811255436,1.0,1.0
102.41169029099869,102.41169029099869,102.41169029099869,0.1693674077450166,0.16787096574988553,0.17667204317585694,0.20070758019879842,1.0,1.0
102.41669029099869,102.41669029099869,102.41669029099869,0.16948445082687877,0.1680900722556074,0.17686764303061678,0.20096044548356332,1.0,1.0
102.42169029099868,102.42169029099868,102.42169029099868,0.3634773597607096,0.1682973956377424,0.19444054238141995,0.20120388269501796,1.0,1.0
102.42669029099868,102.42669029099868,102.42669029099868,0.1696827504299218,0.16849290596030506,0.18674895519744325,0.20143785678967704,1.0,1.0
102.43169029099867,102.43169029099867,102.43169029099867,0.8022504749536401,0.16867650621947503,0.2708444657828325,0.20166231365761525,1.0,1.0
102.43669029099867,102.43669029099867,102.43669029099867,0.16983307110396964,0.16884823752582862,0.2709431676037115,0.20187721683210838,1.0,1.0
102.44169029099866,102.44169029099866,102.44169029099866,0.1698903420887085,0.1690081660550885,0.27103452516501925,0.20208254044486357,1.0,1.0
102.44669029099866,102.44669029099866,102.44669029099866,0.16993570633437083,0.16915627559382734,0.2711185240514954,0.2022782586885574,1.0,1.0
102.45169029099866,102.45169029099866,102.45169029099866,0.5659856632950574,0.16929228656225123,0.30292316195648056,0.20246431167872503,1.0,1.0
102.45669029099865,102.45669029099865,102.45669029099865,0.1699902843944387,0.169416569137805,0.30298511576433346,0.2026406898053927,1.0,1.0
102.46169029099865,102.46169029099865,102.46169029099865,0.1699994318730968,0.16952866619761786,0.30304042747062543,0.20280735531787095,1.0,1.0
102.46669029099864,102.46669029099864,102.46669029099864,0.16999663118471794,0.3534805625358452,0.3030890796230685,0.21726805266052324,1.0,1.0
102.47169029099864,102.47169029099864,102.47169029099864,0.1699819975576576,0.16971726075034738,0.30313107524510324,0.21740553953265698,1.0,1.0
102.47669029099863,102.47669029099863,102.47669029099863,0.1699552630996953,0.16979358567772831,0.3031663825945361,0.21753387706481536,1.0,1.0
102.48169029099863,102.48169029099863,102.48169029099863,0.16991648619211133,0.16985788432232443,0.3031950018515186,0.2176530534847991,1.0,1.0
102.48669029099862,102.48669029099862,102.48669029099862,0.16986576920890317,0.169910248706365,0.30321692791938615,0.1860264154393257,1.0,1.0
102.49169029099862,102.49169029099862,102.49169029099862,0.1698029360172368,0.25484760928857614,0.3032321516082738,0.19210346799927522,1.0,1.0
102.49669029099861,102.49669029099861,102.49669029099861,0.1697281904838464,0.1699788086306238,0.3032406721439015,0.1922073102261865,1.0,1.0
102.50169029099861,102.50169029099861,102.50169029099861,0.16964170543666374,0.16999536103703003,0.2923975248956254,0.19230067782411597,1.0,1.0
102.5066902909986,102.5066902909986,102.5066902909986,0.16954314570430518,0.1699998032572319,0.29239246351257653,0.1923835499747803,1.0,1.0
102.5116902909986,102.5116902909986,102.5116902909986,0.16943263350075868,0.16999224745797825,0.21693824527888625,0.19245591788442531,1.0,1.0
102.5166902909986,102.5166902909986,102.5166902909986,0.16931006687459665,0.16997258077239155,0.2169126931134088,0.1925177647904595,1.0,1.0
102.52169029099859,102.52169029099859,102.52169029099859,0.16917530669328262,0.1699406525118477,0.2168777620860334,0.19256906250444983,1.0,1.0
102.52669029099859,102.52669029099859,102.52669029099859,0.16902900818384015,0.16989711163271148,0.21683347301549594,0.19260982002318938,1.0,1.0
102.53169029099858,102.53169029099858,102.53169029099858,0.34714032367172937,0.169841426197795,0.18581487991795018,0.1926400328451475,1.0,1.0
102.53669029099858,102.53669029099858,102.53669029099858,0.37937773282431186,0.1697739189336625,0.20424640158353596,0.19265969442986466,1.0,1.0
102.54169029099857,102.54169029099857,102.54169029099857,0.16851859823576265,0.16969441175166144,0.20416968924024623,0.1926688140375117,1.0,1.0
102.54669029099857,102.54669029099857,102.54669029099857,0.16832482915221955,0.1696029922717369,0.20408309973609864,0.17637974255473782,1.0,1.0
102.55169029099856,102.55169029099856,102.55169029099856,0.4705057592942278,0.16949925950853945,0.23168949798189717,0.17636664007759364,1.0,1.0
102.55669029099856,102.55669029099856,102.55669029099856,0.16790147944604678,0.16938394448882557,0.23159588874623577,0.17634201970698957,1.0,1.0
102.56169029099856,102.56169029099856,102.56169029099856,0.16767228841604165,0.16925668942460517,0.23149363854236626,0.17630588700429964,1.0,1.0
102.56669029099855,102.56669029099855,102.56669029099855,0.1674313326953351,0.16911751147242257,0.2313827654813209,0.17625824320246913,1.0,1.0
102.57169029099855,102.57169029099855,102.57169029099855,0.1671784466968397,0.1689662320093155,0.23126328915173142,0.16968238276785969,1.0,1.0
102.57669029099854,102.57669029099854,102.57669029099854,0.16691382642706676,0.1688030391084788,0.23113522954052804,0.16960900753225555,1.0,1.0
102.58169029099854,102.58169029099854,102.58169029099854,0.1666376123139886,0.7106573669644461,0.23099860591709867,0.24192081832491658,1.0,1.0
102.58669029099853,102.58669029099853,102.58669029099853,0.1663497573224768,0.16844125139238855,0.2308534516847518,0.24185267202977792,1.0,1.0
102.59169029099853,102.59169029099853,102.59169029099853,0.16605025630220757,0.16824258247011273,0.23069979529673013,0.24177619323553798,1.0,1.0
102.59669029099852,102.59669029099852,102.59669029099852,0.1657390874417248,0.16803202530509742,0.23053766980151344,0.24169139997644684,1.0,1.0
102.60169029099852,102.60169029099852,102.60169029099852,0.16541636876971108,0.16780968946051186,0.23036712083953856,0.24159832259117067,1.0,1.0
102.60669029099851,102.60669029099851,102.60669029099851,0.16508210825387376,0.16757557243528878,0.23018816524208896,0.2414969636969783,1.0,1.0
102.61169029099851,102.61169029099851,102.61169029099851,0.16473624947736007,0.16732960573663744,0.21714296705357253,0.24138734723738525,1.0,1.0
102.6166902909985,102.6166902909985,102.6166902909985,0.4671469151870788,0.1670720616075848,0.22758458131801665,0.24126949567865844,1.0,1.0
102.6216902909985,102.6216902909985,102.6216902909985,0.16401038960283545,0.6534257784404205,0.22737864296222368,0.2882646968576878,1.0,1.0
102.6266902909985,102.6266902909985,102.6266902909985,0.16363014548735383,0.16652158536940354,0.22716435856123082,0.2881523935652026,1.0,1.0
102.63169029099849,102.63169029099849,102.63169029099849,0.1632389859727187,0.16622923023561825,0.19857769729707353,0.2880333084784282,1.0,1.0
102.63669029099849,102.63669029099849,102.63669029099849,0.1628357305179966,0.16592445952527674,0.19831386079805557,0.28790742808091013,1.0,1.0
102.64169029099848,102.64169029099848,102.64169029099848,0.667130189346474,0.16560901152878077,0.25571014980208534,0.2877748156209984,1.0,1.0
102.64669029099848,102.64669029099848,102.64669029099848,0.1619967894489558,0.16528158909141302,0.25549126697557006,0.2876354879766611,1.0,1.0
102.65169029099847,102.65169029099847,102.65169029099847,0.1615603016569492,0.48549584567982546,0.25526526619920653,0.3093242040834841,1.0,1.0
102.65669029099847,102.65669029099847,102.65669029099847,0.16111279317974167,0.16459234300181783,0.2550322044269216,0.3091823475993439,1.0,1.0
102.66169029099846,102.66169029099846,102.66169029099846,0.16065398915250026,0.16423039342162363,0.2547921230030702,0.25634904353918087,1.0,1.0
102.66669029099846,102.66669029099846,102.66669029099846,0.16018401889714817,0.16385691651582543,0.2545450713109789,0.25616327165192493,1.0,1.0
102.67169029099846,102.67169029099846,102.67169029099846,0.15970327343119436,0.16347230513035696,0.2542911153070914,0.25597016133271105,1.0,1.0
102.67669029099845,102.67669029099845,102.67669029099845,0.15921151837773453,0.16307630607266413,0.2540303136025452,0.25576975680742614,1.0,1.0
102.68169029099845,102.68169029099845,102.68169029099845,0.1587088406721963,0.1626689979209659,0.25376272439952086,0.25556210191520184,1.0,1.0
102.68669029099844,102.68669029099844,102.68669029099844,0.15819513107021227,0.1622502559248564,0.2534884023164882,0.25534723662540915,1.0,1.0
102.69169029099844,102.69169029099844,102.69169029099844,0.7675916552589728,0.16182052726373305,0.31525394913018095,0.25512522245503005,1.0,1.0
102.69669029099843,102.69669029099843,102.69669029099843,0.15713559208525937,0.1613794368009511,0.2954473507460738,0.25489609586261325,1.0,1.0
102.70169029099843,102.70169029099843,102.70169029099843,0.15658975825866292,0.16092733247144494,0.29519560649463955,0.1997630898999403,1.0,1.0
102.70669029099842,102.70669029099842,102.70669029099842,0.15603312600201813,0.1604639902683938,0.2949384098203342,0.19945299057059498,1.0,1.0
102.71169029099842,102.71169029099842,102.71169029099842,0.15546600203389038,0.15998971787648386,0.29467581346334637,0.1991338243497216,1.0,1.0
102.71669029099841,102.71669029099841,102.71669029099841,0.15488823988591913,0.15950435097334942,0.29440790711678705,0.19880568272074847,1.0,1.0
102.72169029099841,102.72169029099841,102.72169029099841,0.15429998052924207,0.15900802477983808,0.24565754196900422,0.19846857417451705,1.0,1.0
102.7266902909984,102.7266902909984,102.7266902909984,0.15370152856716363,0.15850104598739811,0.24532417926492725,0.19812259097027035,1.0,1.0
102.7316902909984,102.7316902909984,102.7316902909984,0.1530923423886665,0.3576274356206664,0.24498453792264202,0.18031779990141952,1.0,1.0
102.7366902909984,102.7366902909984,102.7366902909984,0.16377197006039848,0.15745421619801997,0.24509471475202355,0.17991896339121655,1.0,1.0
102.74169029099839,102.74169029099839,102.74169029099839,0.1518436088737414,0.1569146029350526,0.24474342234715968,0.1795104287874319,1.0,1.0
102.74669029099839,102.74669029099839,102.74669029099839,0.15120376284824627,0.1563642423958898,0.24438611132087548,0.1790922583309244,1.0,1.0
102.75169029099838,102.75169029099838,102.75169029099838,0.47560234070892543,0.15580346781731896,0.26882680221750116,0.17866451066601033,1.0,1.0
102.75669029099838,102.75669029099838,102.75669029099838,0.14989398098718448,0.15523188466144316,0.26849179356637726,0.17822723809045665,1.0,1.0
102.76169029099837,102.76169029099837,102.76169029099837,0.14922404234572959,0.15464986013285006,0.2681516373838609,0.1777805091102748,1.0,1.0
102.76669029099837,102.76669029099837,102.76669029099837,0.2665159560307429,0.15405738135994215,0.2734604479434582,0.1773243993920354,1.0,1.0
102.77169029099836,102.77169029099836,102.77169029099836,0.1478545007931947,0.15345451198156213,0.19829805054711586,0.17685896325171155,1.0,1.0
102.77669029099836,102.77669029099836,102.77669029099836,0.14715505054619502,0.15284132464419575,0.19781886983643843,0.17638428111943613,1.0,1.0
102.78169029099836,102.78169029099836,102.78169029099836,0.14644608803166612,0.15221806862481368,0.19733268047293326,0.17590042781638884,1.0,1.0
102.78669029099835,102.78669029099835,102.78669029099835,0.14572701146015984,0.15158409316066623,0.19683956252194199,0.17540745658721016,1.0,1.0
102.79169029099835,102.79169029099835,102.79169029099835,0.14499863700848273,0.15094025063633526,0.19633961981207276,0.174905449932647,1.0,1.0
102.79669029099834,102.79669029099834,102.79669029099834,0.5224362368117605,0.1502863345606864,0.23261249907387074,0.17439448941883962,1.0,1.0
102.80169029099834,102.80169029099834,102.80169029099834,0.1435134955380599,0.14962238446769582,0.23218053791937598,0.1738746518731126,1.0,1.0
102.80669029099833,102.80669029099833,102.80669029099833,0.14275691653339762,0.14894853484028744,0.23174342120526492,0.1733460046907461,1.0,1.0
102.81169029099833,102.81169029099833,102.81169029099833,0.14199096725220578,0.1482646895593583,0.23130126213364866,0.15306584223329875,1.0,1.0
102.81669029099832,102.81669029099832,102.81669029099832,0.14121586267326328,0.1475710647070215,0.23036995294620558,0.1524491353447226,1.0,1.0
102.82169029099832,102.82169029099832,102.82169029099832,0.14043153630421804,0.1468675755101037,0.22991704731815135,0.15182220563862017,1.0,1.0
102.82669029099831,102.82669029099831,102.82669029099831,0.13963825116652698,0.1461544899136667,0.22945939750440192,0.15118512505813259,1.0,1.0
102.83169029099831,102.83169029099831,102.83169029099831,0.13883603535053202,0.14543182455198375,0.1992962148212704,0.15053794530576578,1.0,1.0
102.8366902909983,102.8366902909983,102.8366902909983,0.1380248867202687,0.1446995632520289,0.1987596481449599,0.14988074284658204,1.0,1.0
102.8416902909983,102.8416902909983,102.8416902909983,0.13720487723080801,0.14395776913343944,0.1982176403623762,0.14921357454892017,1.0,1.0
102.8466902909983,102.8466902909983,102.8466902909983,0.13637610415818635,0.14320653257078111,0.18977147674565664,0.14853650382442232,1.0,1.0
102.85169029099829,102.85169029099829,102.85169029099829,0.13553887314998206,0.3242348326285011,0.18919587186788703,0.1648084924496184,1.0,1.0
102.85669029099829,102.85669029099829,102.85669029099829,0.13469304296403825,0.1416765125872058,0.1886148280609285,0.16418381288896433,1.0,1.0
102.86169029099828,102.86169029099828,102.86169029099828,0.1338387087892393,0.14089765081922415,0.18802845481167374,0.16355102380959027,1.0,1.0
102.86669029099828,102.86669029099828,102.86669029099828,0.2854780246009848,0.14010960751156787,0.19779037795144716,0.16291024427663126,1.0,1.0
102.87169029099827,102.87169029099827,102.87169029099827,0.13210479624067625,0.13931254231907153,0.19722506341396717,0.1622615535619864,1.0,1.0
102.87669029099827,102.87669029099827,102.87669029099827,0.13122560260616487,0.13850668370729285,0.1513778689785125,0.16160505625318003,0.974544449129898,1.0
102.88169029099826,102.88169029099826,102.88169029099826,0.13033827592254568,0.13769196312983104,0.15063119079238702,0.1609408521169818,0.8997970070554636,1.0
102.88669029099826,102.88669029099826,102.88669029099826,0.1294428781504524,0.1368684327339303,0.14987745238157685,0.16026903707715534,0.8243427896319462,1.0
102.89169029099826,102.89169029099826,102.89169029099826,0.12853956133386116,0.41184994421028986,0.14911677382276486,0.18685164340762825,0.7481938173322411,1.0
102.89669029099825,102.89669029099825,102.89669029099825,0.12762840523322627,0.13519546603939064,0.1483492681387358,0.18626546600298516,0.671361404487224,1.0
102.90169029099825,102.90169029099825,102.90169029099825,0.12670946864676425,0.13434615014843976,0.1475750569144306,0.18567377044975258,0.5938577225564307,1.0
102.90669029099824,102.90669029099824,102.90669029099824,0.1257828317368072,0.1334883673580062,0.14679425191906417,0.18507667225815166,0.5156939603800798,1.0
102.91169029099824,102.91169029099824,102.91169029099824,0.12484863499215469,0.2509008644662346,0.14600697228454385,0.19200501653990146,0.436882043852762,1.0
102.91669029099823,102.91669029099823,102.91669029099823,0.12390695853701941,0.2697715103874747,0.14521334311775222,0.2002644386547473,0.3574344970037505,1.0
102.92169029099823,102.92169029099823,102.92169029099823,0.1229578805125981,0.13086533351382773,0.14441349104982665,0.19970218802898504,0.277363996450335,1.0
102.92669029099822,102.92669029099822,102.92669029099822,0.7342447850834364,0.12997471514458672,0.2310574962255108,0.1991357479935163,1.0,1.0
102.93169029099822,102.93169029099822,102.93169029099822,0.12103796750382616,0.12907609234059256,0.23055374487778352,0.1847317563704331,1.0,1.0
102.93669029099821,102.93669029099821,102.93669029099821,0.12006729637030229,0.12816955353067133,0.23004814825779993,0.18411415433445424,1.0,1.0
102.94169029099821,102.94169029099821,102.94169029099821,0.11908953355465622,0.12725510279239582,0.22954083586877547,0.1834921766726355,1.0,1.0
102.9466902909982,102.9466902909982,102.9466902909982,0.11810497704250415,0.1263330552962709,0.22015264709592805,0.18286596887208675,1.0,1.0
102.9516902909982,102.9516902909982,102.9516902909982,0.11711362429416859,0.509039491487828,0.21962168212904107,0.22005008245158866,1.0,1.0
102.9566902909982,102.9566902909982,102.9566902909982,0.11611545273967873,0.521197461284598,0.21908924719230038,0.25337907776801705,1.0,1.0
102.96169029099819,102.96169029099819,102.96169029099819,0.11511075766096643,0.12352139180900855,0.21855548381981896,0.2529221434469782,1.0,1.0
102.96669029099819,102.96669029099819,102.96669029099819,0.11409953627567447,0.12256934937810415,0.2180205319456595,0.2524633696030167,1.0,1.0
102.97169029099818,102.97169029099818,102.97169029099818,0.11308189502475964,0.12161003885518062,0.21748453016139777,0.2325097676530615,1.0,1.0
102.97669029099818,102.97669029099818,102.97669029099818,0.11205786107979325,0.12064347113443019,0.21694761582000974,0.2320088503100483,1.0,1.0
102.98169029099817,102.98169029099817,102.98169029099817,0.11102775761934897,0.11966999412087641,0.2164099353190924,0.23150617235133142,1.0,1.0
102.98669029099817,102.98669029099817,102.98669029099817,0.10999150844798787,0.11868950132390768,0.21587163038018015,0.23100186402019054,1.0,1.0
102.99169029099816,102.99169029099816,102.99169029099816,0.10894923691069615,0.11770211299630809,0.21533284227736438,0.22426161097403818,1.0,1.0
102.99669029099816,102.99669029099816,102.99669029099816,0.1790618722488098,0.11670798309938453,0.21774439532559256,0.21586112549639416,1.0,1.0
103.00169029099816,103.00169029099816,103.00169029099816,0.1068471380695074,0.11570715285642057,0.21721239859651503,0.21531935841262248,1.0,1.0
103.00669029099815,103.00669029099815,103.00669029099815,0.10578751440348494,0.11469977310870912,0.11910478880125551,0.21477625408344247,0.0,1.0
103.01169029099815,103.01169029099815,103.01169029099815,0.10472231561723654,0.11368592763882529,0.11813440048760293,0.21423195396856504,0.0,1.0
103.01669029099814,103.01669029099814,103.01669029099814,0.10365162285868926,0.11266568827968136,0.11715889011312045,0.2136865994397977,0.0,1.0
103.02169029099814,103.02169029099814,103.02169029099814,0.10257558112868255,0.11163920124219269,0.11617839766987478,0.2131403373586292,0.0,1.0
103.02669029099813,103.02669029099813,103.02669029099813,0.10149427044079944,0.11060653693115458,0.11519305065094332,0.21259330594191703,0.0,1.0
103.03169029099813,103.03169029099813,103.03169029099813,0.10040780020564365,0.10956779993151503,0.11420298486662725,0.17248523824313605,0.0,1.0
103.03669029099812,103.03669029099812,103.03669029099812,0.09931629201660694,0.10852310933617394,0.11320834651598709,0.11622956546183282,0.0,0.0
103.04169029099812,103.04169029099812,103.04169029099812,0.09821985653762817,0.1074725714500671,0.11220927134798493,0.11522852554239739,0.0,0.0
103.04669029099811,103.04669029099811,103.04669029099811,0.09711860687933098,0.10641629554268718,0.11120590385827923,0.11422100073127305,0.0,0.0
103.05169029099811,103.05169029099811,103.05169029099811,0.09601265375174486,0.25222018526630985,0.11019839028572831,0.12687814341777626,0.0,0.0
103.0566902909981,103.0566902909981,103.0566902909981,0.09490208816412321,0.36042861799668735,0.1091868826980787,0.1526685449711864,0.0,1.0
103.0616902909981,103.0616902909981,103.0616902909981,0.0937870851851867,0.10321411072672307,0.10817152468381423,0.15191593052123523,0.0,1.0
103.0666902909981,103.0666902909981,103.0666902909981,0.09266762386240956,0.10213587167370908,0.10715246632146928,0.15116211035179972,0.0,1.0
103.07169029099809,103.07169029099809,103.07169029099809,0.09154392114300058,0.10105244977000279,0.10612986440417899,0.15040726958347087,0.0,1.0
103.07669029099809,103.07669029099809,103.07669029099809,0.0904160612310568,0.09996391910336372,0.09884605452750751,0.1496515911417783,0.0,1.0
103.08169029099808,103.08169029099808,103.08169029099808,0.08928417695759615,0.09887041326316216,0.0977509697112485,0.14889526375462406,0.0,1.0
103.08669029099808,103.08669029099808,103.08669029099808,0.08814836121270958,0.09777201670646814,0.09665116678442426,0.14813847457628235,0.0,1.0
103.09169029099807,103.09169029099807,103.09169029099807,0.08700872498151609,0.09666883596858572,0.0955467567108254,0.14738141336788085,0.0,0.9701218680188834
103.09669029099807,103.09669029099807,103.09669029099807,0.08586538109926198,0.0955609796124845,0.09443785265897227,0.14662427314610763,0.0,0.925357178325376
103.10169029099806,103.10169029099806,103.10169029099806,0.08471845731261844,0.23909171547131133,0.09332456650145338,0.15586059010438819,0.0,1.0
103.10669029099806,103.10669029099806,103.10669029099806,0.08356810360791117,0.09333178065289874,0.09220701451464373,0.15515262486317863,0.0,1.0
103.11169029099806,103.11169029099806,103.11169029099806,0.08241435949526092,0.09221060975897473,0.09108530916129436,0.15444559839172275,0.0,1.0
103.11669029099805,103.11669029099805,103.11669029099805,0.333232967302168,0.09108515222103317,0.12091448976374199,0.15373969995913034,0.0,1.0
103.12169029099805,103.12169029099805,103.12169029099805,0.08009720836304336,0.08995564581649113,0.12007639337274457,0.1530351246643534,0.0,1.0
103.12669029099804,103.12669029099804,103.12669029099804,0.078934113507204,0.0888221847609792,0.11924030736276946,0.15233206791521933,0.0,1.0
103.13169029099804,103.13169029099804,103.13169029099804,0.07776805661532243,0.08768474931192294,0.11840646502322921,0.14039109125300542,0.0,0.5568303913130207
103.13669029099803,103.13669029099803,103.13669029099803,0.25690117288648506,0.08654361825864082,0.13259743154594283,0.10981107219949704,0.0,0.0
103.14169029099803,103.14169029099803,103.14169029099803,0.15654033691483554,0.0853987908712327,0.1362493397633482,0.10885062760235087,0.0,0.0
103.14669029099802,103.14669029099802,103.14669029099802,0.07425380802711547,0.08425044387689601,0.1355425350372982,0.10788933771512026,0.0,0.0
103.15169029099802,103.15169029099802,103.15169029099802,0.07307738686338756,0.08309867572112506,0.1348398299469459,0.10692741094540555,0.0,0.0
103.15669029099801,103.15669029099801,103.15669029099801,0.07189865906417363,0.08194359954216666,0.13414144328111016,0.10596506139030722,0.0,0.0
103.16169029099801,103.16169029099801,103.16169029099801,0.0707177089787452,0.08078528129043333,0.13344759247473234,0.10500250319086779,0.0,0.0
103.166690290998,103.166690290998,103.166690290998,0.06953473794423574,0.07962395972195835,0.13275849906722617,0.10403996183333995,0.0,0.0
103.171690290998,103.171690290998,103.171690290998,0.06834978250317912,0.07845962945802012,0.1320743823898691,0.1030776612983185,0.0,0.0
103.176690290998,103.176690290998,103.176690290998,0.06716298896304428,0.07729244769502777,0.1313954630004815,0.10211583183629167,0.0,0.0
103.18169029099799,103.18169029099799,103.18169029099799,0.06597448836530086,0.07612255117258336,0.13072196144379483,0.08495295910675098,0.0,0.0
103.18669029099799,103.18669029099799,103.18669029099799,0.0647844156985662,0.07495008484280995,0.13005409735860635,0.08380736025030724,0.0,0.0
103.19169029099798,103.19169029099798,103.19169029099798,0.06359281767603815,0.07377504452347013,0.12939209105591457,0.08265846098415854,0.0,0.0
103.19669029099798,103.19669029099798,103.19669029099798,0.0623998869940574,0.07259767182325294,0.10022678878580094,0.08150638615905446,0.0,0.0
103.20169029099797,103.20169029099797,103.20169029099797,0.061205697169236156,0.07141800374087477,0.09939099607844147,0.08035124796767786,0.0,0.0
103.20669029099797,103.20669029099797,103.20669029099797,0.06001042536949368,0.0702362682407484,0.09856082465326159,0.07919316639950891,0.0,0.0
103.21169029099796,103.21169029099796,103.21169029099796,0.3975662446796212,0.0690524398257566,0.1386179161355568,0.0780322633010218,0.0,0.0
103.21669029099796,103.21669029099796,103.21669029099796,0.6985704103414918,0.06786675403613442,0.21351832947584043,0.07686865595619245,1.0,0.0
103.22169029099796,103.22169029099796,103.22169029099796,0.056419003828933376,0.06667924028223103,0.21037458545207163,0.07570246524161658,1.0,0.0
103.22669029099795,103.22669029099795,103.22669029099795,0.05522042433595643,0.0654900804563928,0.2100082031914782,0.07453381164078382,1.0,0.0
103.23169029099795,103.23169029099795,103.23169029099795,0.054021324065563675,0.06429937842992436,0.20964749066981855,0.07336281645149477,1.0,0.0
103.23669029099794,103.23669029099794,103.23669029099794,0.05282181806544744,0.06310723680446848,0.2092925364165758,0.07218960072021267,1.0,0.0
103.24169029099794,103.24169029099794,103.24169029099794,0.05162202770293785,0.22614707782878446,0.2089434271782526,0.08944189956740896,1.0,0.0
103.24669029099793,103.24669029099793,103.24669029099793,0.0504220774265177,0.0607191195634026,0.20860024542874644,0.08851005977090058,1.0,0.0
103.25169029099793,103.25169029099793,103.25169029099793,0.050777915470820466,0.059523415916794435,0.20828641671660053,0.08758268039333181,1.0,0.0
103.25669029099792,103.25669029099792,103.25669029099792,0.05197783077720073,0.05832674408272057,0.20801480266199132,0.08666007626161062,1.0,0.0
103.26169029099792,103.26169029099792,103.26169029099792,0.1625754740804934,0.05712923030839775,0.21130556690512634,0.08574256791454948,1.0,0.0
103.26669029099791,103.26669029099791,103.26669029099791,0.05437694571186,0.05593102025060802,0.2111220786341837,0.08483048208398751,1.0,0.0
103.27169029099791,103.27169029099791,103.27169029099791,0.10935817804143447,0.054732211364401526,0.21229043755455335,0.08392415802974476,1.0,0.0
103.2766902909979,103.2766902909979,103.2766902909979,0.05677431157102669,0.16240793592021247,0.21219172559726973,0.09144607171433482,1.0,0.0
103.2816902909979,103.2816902909979,103.2816902909979,0.05797202476689891,0.052333290546290476,0.21213496188758493,0.09063539131901066,1.0,0.0
103.2866902909979,103.2866902909979,103.2866902909979,0.05916896848514973,0.051133426032139766,0.21212018830124985,0.089832441395843,1.0,0.0
103.29169029099789,103.29169029099789,103.29169029099789,0.060364975196636216,0.0502077968932054,0.18800009971426163,0.08904720091655768,1.0,0.0
103.29669029099789,103.29669029099789,103.29669029099789,0.061559959523591806,0.05126653214656195,0.07128008588178007,0.08835044739279549,0.0,0.0
103.30169029099788,103.30169029099788,103.30169029099788,0.06275377902307208,0.05246638100557368,0.0716102921555495,0.08774943907346378,0.0,0.0
103.30669029099788,103.30669029099788,103.30669029099788,0.0639463303777009,0.05366598504836442,0.07206263811200184,0.08724624355679553,0.0,0.0
103.31169029099787,103.31169029099787,103.31169029099787,0.06513745292686737,0.05486521235203874,0.07263477357066339,0.08684263558885788,0.0,0.0
103.31669029099787,103.31669029099787,103.31669029099787,0.06632710873146196,0.056063967701874926,0.07332381357526378,0.08654006977756325,0.0,0.0
103.32169029099786,103.32169029099786,103.32169029099786,0.1856352900174691,0.057262103364726154,0.08581146971385424,0.06706498085110373,0.0,0.0
103.32669029099786,103.32669029099786,103.32669029099786,0.0687013479964536,0.058459519349229654,0.08660081649288577,0.06693938042500222,0.0,0.0
103.33169029099786,103.33169029099786,103.33169029099786,0.06988572235955658,0.05965608577209292,0.08742884255421195,0.06694676147608558,0.0,0.0
103.33669029099785,103.33669029099785,103.33669029099785,0.07106813977540458,0.06085170225419068,0.08826445553163657,0.06708708079155211,0.0,0.0
103.34169029099785,103.34169029099785,103.34169029099785,0.07224843875597246,0.06204622868578751,0.08040478759646341,0.06735948712162551,0.0,0.0
103.34669029099784,103.34669029099784,103.34669029099784,0.07342647343491934,0.252199634601476,0.08134551027525147,0.09119799365647355,0.0,0.0
103.35169029099784,103.35169029099784,103.35169029099784,0.07460220005379274,0.06443152397959152,0.07885102639605457,0.09159318720330478,0.0,0.0
103.35669029099783,103.35669029099783,103.35669029099783,0.07577548323963584,0.06562208659997146,0.07984295179648648,0.08372533654486872,0.0,0.0
103.36169029099783,103.36169029099783,103.36169029099783,0.16455148683990117,0.06681106579996582,0.08864070290746277,0.08436670584668952,0.0,0.0
103.36669029099782,103.36669029099782,103.36669029099782,0.07811410255517026,0.06799834642056603,0.08955292903405933,0.08510765415963492,0.0,0.0
103.37169029099782,103.37169029099782,103.37169029099782,0.07927929903785388,0.06918386458350778,0.0904699226962721,0.08593550961139992,0.0,0.0
103.37669029099781,103.37669029099781,103.37669029099781,0.13007669901159805,0.07036744698636661,0.09489705923127928,0.08677626017227465,0.0,0.0
103.38169029099781,103.38169029099781,103.38169029099781,0.08160072311685715,0.07154898233069543,0.09578878811069053,0.08762435627742043,0.0,0.0
103.3866902909978,103.3866902909978,103.3866902909978,0.08275681612262818,0.07272841128902807,0.09668487093691827,0.08847945696104113,0.0,0.0
103.3916902909978,103.3916902909978,103.3916902909978,0.08390953157531762,0.07390549665487552,0.09758501101757575,0.08934122081075636,0.0,0.0
103.3966902909978,103.3966902909978,103.3966902909978,0.08505897482562902,0.07508027537237369,0.09848892509138968,0.09020931875740991,0.0,0.0
103.40169029099779,103.40169029099779,103.40169029099779,0.38551177229333855,0.0762524287212661,0.1297497494042375,0.09108341762326821,0.0,0.0
103.40669029099779,103.40669029099779,103.40669029099779,0.08734708881633471,0.077422092317458,0.13044864847794463,0.09196320202641686,0.0,0.0
103.41169029099778,103.41169029099778,103.41169029099778,0.25750145790316825,0.07858892054205963,0.14441532659055312,0.09284835024569092,0.2775477462593912,0.0
103.41669029099778,103.41669029099778,103.41669029099778,0.08962017455484445,0.07975287311334596,0.14505897078089533,0.09373854909939155,0.3419808015275493,0.0
103.42169029099777,103.42169029099777,103.42169029099777,0.09075096628412137,0.08091395997119338,0.14570723666032953,0.09463349823801674,0.4068765185475954,0.0
103.42669029099777,103.42669029099777,103.42669029099777,0.09187755803799802,0.08207186126261455,0.14635992016962954,0.07349282215726383,0.47221446963666386,0.0
103.43169029099776,103.43169029099776,103.43169029099776,0.09300000143519145,0.08322658519072154,0.14701682125845428,0.07466356279103077,0.5379746284278956,0.0
103.43669029099776,103.43669029099776,103.43669029099776,0.5190790621105787,0.08437797049939802,0.19518009001119363,0.07583194634942214,1.0,0.0
103.44169029099776,103.44169029099776,103.44169029099776,0.09523191054047747,0.17163203138927813,0.1922752268156915,0.08551373467159713,1.0,0.0
103.44669029099775,103.44669029099775,103.44669029099775,0.09634111410368416,0.08667038427741819,0.19279133843373727,0.08656268013505194,1.0,0.0
103.45169029099775,103.45169029099775,103.45169029099775,0.6411480882987469,0.08781113616363612,0.24993519993619767,0.08761205324834469,1.0,0.0
103.45669029099774,103.45669029099774,103.45669029099774,0.09854549389029539,0.08894807198031932,0.24903224357182668,0.08866162215972079,1.0,0.0
103.46169029099774,103.46169029099774,103.46169029099774,0.09964048652304484,0.09008115414371068,0.24944218793590692,0.089711164774512,1.0,0.0
103.46669029099773,103.46669029099773,103.46669029099773,0.10073043187118928,0.0912101608245322,0.24985500936120916,0.09076045428496285,1.0,0.0
103.47169029099773,103.47169029099773,103.47169029099773,0.10181538310010307,0.09233511033955015,0.250270600300064,0.09180928301301372,1.0,0.0
103.47669029099772,103.47669029099772,103.47669029099772,0.10289510207797799,0.0934557847068448,0.250688844340215,0.09285743343393375,1.0,0.0
103.48169029099772,103.48169029099772,103.48169029099772,0.10396966448924252,0.09457222313981967,0.23287720897816724,0.09390471221094122,1.0,0.0
103.48669029099771,103.48669029099771,103.48669029099771,0.10503873879601992,0.09568412948386848,0.23333349712730722,0.09495090569045005,1.0,0.0
103.49169029099771,103.49169029099771,103.49169029099771,0.10610229682765233,0.09679145702671926,0.22584051766074764,0.0959958200862077,1.0,0.0
103.4966902909977,103.4966902909977,103.4966902909977,0.10716019463935056,0.09789406355289548,0.22631760900119635,0.09703925961094362,1.0,0.0
103.5016902909977,103.5016902909977,103.5016902909977,0.10821249688616372,0.09899198155657472,0.2267968210900908,0.09808103473267626,1.0,0.0
103.5066902909977,103.5066902909977,103.5066902909977,0.4541459572039717,0.10008495804329008,0.25258610334879084,0.09912096095274717,1.0,0.0
103.51169029099769,103.51169029099769,103.51169029099769,0.11029942344373603,0.10117291914159937,0.2530208484769451,0.10015885304363409,1.0,0.0
103.51669029099769,103.51669029099769,103.51669029099769,0.11133390035518492,0.1022557720255335,0.21898415480214997,0.10119453249039731,1.0,0.0
103.52169029099768,103.52169029099768,103.52169029099768,0.112362173060461,0.10333333883264205,0.21949104509356857,0.09521868225652091,1.0,0.0
103.52669029099768,103.52669029099768,103.52669029099768,0.11338429209926558,0.10440564283085886,0.21999935929571246,0.09632443289309513,1.0,0.0
103.53169029099767,103.53169029099767,103.53169029099767,0.11440004288529862,0.10547248070863934,0.1533810589942994,0.09742560960397804,1.0,0.0
103.53669029099767,103.53669029099767,103.53669029099767,0.11540926004623749,0.10653369039507278,0.15411441996730502,0.0985220972001602,1.0,0.0
103.54169029099766,103.54169029099766,103.54169029099766,0.11641208992306452,0.466075715742888,0.15484742877980096,0.15091753059636315,1.0,1.0
103.54669029099766,103.54669029099766,103.54669029099766,0.1174082618885776,0.10863929529307724,0.15557990295387386,0.15163707076952826,1.0,1.0
103.55169029099766,103.55169029099766,103.55169029099766,0.11839765989979484,0.10968331853583632,0.15631165441276998,0.1523576133371384,1.0,1.0
103.55669029099765,103.55669029099765,103.55669029099765,0.11938008704828754,0.3894232293953142,0.1570424974402102,0.17929060651741613,1.0,1.0
103.56169029099765,103.56169029099765,103.56169029099765,0.12035583560671585,0.11175335385899385,0.15777225914009727,0.17990741578574043,1.0,1.0
103.56669029099764,103.56669029099764,103.56669029099764,0.12132433752733653,0.11277908858688913,0.15850075518260723,0.1805253656454295,1.0,1.0
103.57169029099764,103.57169029099764,103.57169029099764,0.12228581043608441,0.1137986362440069,0.15922781484739393,0.18114429084991487,1.0,1.0
103.57669029099763,103.57669029099763,103.57669029099763,0.6507974480746334,0.11481177067137195,0.226068292148983,0.18176402296764035,1.0,1.0
103.58169029099763,103.58169029099763,103.58169029099763,0.12418680975268671,0.11581834444630147,0.2265808882436826,0.18238438756234715,1.0,1.0
103.58669029099762,103.58669029099762,103.58669029099762,0.12512636188760512,0.11681849420030252,0.19856208705831394,0.18300522516184103,1.0,1.0
103.59169029099762,103.59169029099762,103.59169029099762,0.1260583612880858,0.6046521359757843,0.19914743067478177,0.23601149931690615,1.0,1.0
103.59669029099761,103.59669029099761,103.59669029099761,0.12698271168200936,0.7466378458586633,0.19973178233691463,0.2998160555775148,1.0,1.0
103.60169029099761,103.60169029099761,103.60169029099761,0.12789937699282722,0.1197782843258873,0.20031499424468557,0.3001982400634103,1.0,1.0
103.6066902909976,103.6066902909976,103.6066902909976,0.12880832647356938,0.12075111785814917,0.20089691666095272,0.3005811067336662,1.0,1.0
103.6116902909976,103.6116902909976,103.6116902909976,0.12970928832126286,0.12171678048293844,0.20147739756091362,0.30096454920680316,1.0,1.0
103.6166902909976,103.6166902909976,103.6166902909976,0.13060230294650682,0.1226752927202086,0.20205629349843418,0.30134846506192625,1.0,1.0
103.62169029099759,103.62169029099759,103.62169029099759,0.1314872804376958,0.12362655828840032,0.20263345326504145,0.2796237775377674,1.0,1.0
103.62669029099759,103.62669029099759,103.62669029099759,0.13236394307697288,0.12457031085600283,0.20320872514194596,0.28003867783049613,1.0,1.0
103.63169029099758,103.63169029099758,103.63169029099758,0.13323257860707802,0.12550679575156265,0.20378197444106513,0.28045366180436443,1.0,1.0
103.63669029099758,103.63669029099758,103.63669029099758,0.13409288157034602,0.12643572168071893,0.20435306234213937,0.26490607331135757,1.0,1.0
103.64169029099757,103.64169029099757,103.64169029099757,0.13494458786481708,0.5261371375799364,0.20492182961546268,0.2944417512724241,1.0,1.0
103.64669029099757,103.64669029099757,103.64669029099757,0.1357880746223558,0.12827046026220484,0.2054881545217964,0.2948378056694203,1.0,1.0
103.65169029099756,103.65169029099756,103.65169029099756,0.13662283733703967,0.12917612757712585,0.20605188767462065,0.29523355677710567,1.0,1.0
103.65669029099756,103.65669029099756,103.65669029099756,0.45428209403538305,0.13007379787839288,0.16995458753169726,0.2956288952138708,1.0,1.0
103.66169029099756,103.66169029099756,103.66169029099756,0.13826628858047618,0.8058197808865043,0.17063268151397223,0.3565700079686029,1.0,1.0
103.66669029099755,103.66669029099755,103.66669029099755,0.13907470750807643,0.13184516002024402,0.17130626080203695,0.35689733423608766,1.0,1.0
103.67169029099755,103.67169029099755,103.67169029099755,0.13987435417944968,0.13271864447767168,0.17197519522195792,0.3250020526867025,1.0,1.0
103.67669029099754,103.67669029099754,103.67669029099754,0.23766930099777672,0.1335839288738258,0.1791594213118487,0.2681415136166471,1.0,1.0
103.68169029099754,103.68169029099754,103.68169029099754,0.14144656137815628,0.13444067006658905,0.1797947529488999,0.26857557101841995,1.0,1.0
103.68669029099753,103.68669029099753,103.68669029099753,0.14221910960977985,0.13528917292524023,0.18042538990822707,0.2690083322841423,1.0,1.0
103.69169029099753,103.69169029099753,103.69169029099753,0.14298222392131715,0.1361289508172523,0.18105119408216586,0.2694396780835418,1.0,1.0
103.69669029099752,103.69669029099752,103.69669029099752,0.14373611347061843,0.1369601837446429,0.18167203741184912,0.2698694946751554,1.0,1.0
103.70169029099752,103.70169029099752,103.70169029099752,0.14448072576942275,0.13778281010882162,0.18228779478477067,0.27029766963327073,1.0,1.0
103.70669029099751,103.70669029099751,103.70669029099751,0.145215793681285,0.13859656881204285,0.1828983418711601,0.27072409039076784,1.0,1.0
103.71169029099751,103.71169029099751,103.71169029099751,0.14594144542854545,0.1394015660257991,0.18350354915487976,0.2711486412833788,1.0,1.0
103.7166902909975,103.7166902909975,103.7166902909975,0.1466573518201753,0.1401974822169588,0.1841032860234415,0.27157120532884754,1.0,1.0
103.7216902909975,103.7216902909975,103.7216902909975,0.3866215601063473,0.14098442430200414,0.20517835347252253,0.2401914644319152,1.0,1.0
103.7266902909975,103.7266902909975,103.7266902909975,0.14806020968864245,0.33617433509829026,0.2057082175410302,0.25244193713333213,1.0,1.0
103.73169029099749,103.73169029099749,103.73169029099749,0.14874703797706118,0.1425310250672289,0.2062331529251921,0.2528907282737151,1.0,1.0
103.73669029099749,103.73669029099749,103.73669029099749,0.14942388331993922,0.14329041381825014,0.17615140678417263,0.2533367912664208,1.0,1.0
103.74169029099748,103.74169029099748,103.74169029099748,0.15009081095763788,0.14404049662171134,0.1767552642018037,0.1577725067830483,1.0,1.0
103.74669029099748,103.74669029099748,103.74669029099748,0.3475797723581249,0.14478094935393815,0.19386669044940066,0.15847969101370216,1.0,1.0
103.75169029099747,103.75169029099747,103.75169029099747,0.15139463516663207,0.14551243414179935,0.1944068220338762,0.15918005318637152,1.0,1.0
103.75669029099747,103.75669029099747,103.75669029099747,0.1520313678867943,0.23548347974030862,0.18896610797933736,0.1663994502124132,1.0,1.0
103.76169029099746,103.76169029099746,103.76169029099746,0.15265788653924825,0.14694615264289965,0.18951060986701093,0.16705899229473006,1.0,1.0
103.76669029099746,103.76669029099746,103.76669029099746,0.15327415406893086,0.23940006668533348,0.19004851867385247,0.17420328321436668,1.0,1.0
103.77169029099746,103.77169029099746,103.77169029099746,0.1538799107209278,0.1483409374484319,0.1905797309802392,0.1748253565338691,1.0,1.0
103.77669029099745,103.77669029099745,103.77669029099745,0.15447536770397022,0.40603301694731253,0.1911041454743401,0.19923717077817732,1.0,1.0
103.78169029099745,103.78169029099745,103.78169029099745,0.1550606592358032,0.14969664737598912,0.19162167130237165,0.19977365113253942,1.0,1.0
103.78669029099744,103.78669029099744,103.78669029099744,0.15563517434514454,0.15035945884153756,0.19213220047703883,0.20030463439562776,1.0,1.0
103.79169029099744,103.79169029099744,103.79169029099744,0.3977640983598347,0.1510123741866208,0.21324192420415122,0.2008300098206336,1.0,1.0
103.79669029099743,103.79669029099743,103.79669029099743,0.15675272876301416,0.15165516638048732,0.21369033245334945,0.2013496711232122,1.0,1.0
103.80169029099743,103.80169029099743,103.80169029099743,0.15729517621514164,0.15228747578430823,0.19459613187732155,0.20186349167937107,1.0,1.0
103.80669029099742,103.80669029099742,103.80669029099742,0.1578272847121041,0.1529099286134572,0.19507532179462206,0.18747502684651013,1.0,1.0
103.81169029099742,103.81169029099742,103.81169029099742,0.1583485994479894,0.37119440797678627,0.19554710053024885,0.20612804977490887,1.0,1.0
103.81669029099741,103.81669029099741,103.81669029099741,0.15885900264892414,0.15412380631141262,0.19601138076473967,0.20661594375855735,1.0,1.0
103.82169029099741,103.82169029099741,103.82169029099741,0.15935855385574607,0.15471515262653324,0.19646807618889853,0.20709772530574963,1.0,1.0
103.8266902909974,103.8266902909974,103.8266902909974,0.15984702718752006,0.15529589142087533,0.18068180825176328,0.20757329666671787,1.0,1.0
103.8316902909974,103.8316902909974,103.8316902909974,0.16032466460466416,0.23197080000320458,0.18116261960138735,0.21242989422832,1.0,1.0
103.8366902909974,103.8366902909974,103.8366902909974,0.16079109634782215,0.15642584215677366,0.18163468757656748,0.20782202936851027,1.0,1.0
103.84169029099739,103.84169029099739,103.84169029099739,0.1612466732017056,0.15697501387315424,0.18209795011761257,0.20827984741950278,1.0,1.0
103.84669029099739,103.84669029099739,103.84669029099739,0.16169085812375966,0.15751323105445655,0.1825523182350466,0.20334483388534458,1.0,1.0
103.85169029099738,103.85169029099738,103.85169029099738,0.4486235810883136,0.15804102885114507,0.2107708579347572,0.2038010482926583,1.0,1.0
103.85669029099738,103.85669029099738,103.85669029099738,0.29719920089462726,0.15855774120081162,0.2201213299889952,0.18111384938180977,1.0,1.0
103.86169029099737,103.86169029099737,103.86169029099737,0.16295682351347235,0.1590637396348854,0.22047753810549287,0.1816121915713145,1.0,1.0
103.86669029099737,103.86669029099737,103.86669029099737,0.1633562096894295,0.2457111116865155,0.22082635439067252,0.18799830344654653,1.0,1.0
103.87169029099736,103.87169029099736,103.87169029099736,0.1637441866551,0.16004276772553286,0.20137408308526916,0.18846464255999149,1.0,1.0
103.87669029099736,103.87669029099736,103.87669029099736,0.1641208762289967,0.1605158480216272,0.20174064189176916,0.18892273418987562,1.0,1.0
103.88169029099735,103.88169029099735,103.88169029099735,0.16448621049069675,0.16097793177696484,0.20209875779484118,0.18937251832348972,1.0,1.0
103.88669029099735,103.88669029099735,103.88669029099735,0.1648401532966263,0.16142897330529127,0.2024483500140755,0.18981390200218395,1.0,1.0
103.89169029099735,103.89169029099735,103.89169029099735,0.16518238797446821,0.1618686544635916,0.20278934469119575,0.17045623541640606,1.0,1.0
103.89669029099734,103.89669029099734,103.89669029099734,0.20482996435116063,0.1622973169410366,0.20534961417939782,0.17092972285629432,1.0,1.0
103.90169029099734,103.90169029099734,103.90169029099734,0.16583252178397007,0.16271465813018476,0.20566974456824538,0.17139333490721073,1.0,1.0
103.90669029099733,103.90669029099733,103.90669029099733,0.16614022550720067,0.1631207694988292,0.2059812193688985,0.17184702055162512,1.0,1.0
103.91169029099733,103.91169029099733,103.91169029099733,0.16643617737018307,0.16351543444204775,0.20628396792712914,0.16685121006569287,1.0,1.0
103.91669029099732,103.91669029099732,103.91669029099732,0.1667207754490061,0.16389903040203382,0.20657795851109043,0.16729895936586964,1.0,1.0
103.92169029099732,103.92169029099732,103.92169029099732,0.16699343824344173,0.16427097964739493,0.20686311383972997,0.16773618956792768,1.0,1.0
103.92669029099731,103.92669029099731,103.92669029099731,0.16725449640759277,0.16463159421761314,0.2071394003514398,0.16816286980738765,1.0,1.0
103.93169029099731,103.93169029099731,103.93169029099731,0.16750394403317298,0.16498085807826934,0.17911277044878574,0.16857893723001402,1.0,1.0
103.9366902909973,103.9366902909973,103.9366902909973,0.16774147221921795,0.16531845843478288,0.1682839841412605,0.16898434924686176,1.0,1.0
103.9416902909973,103.9416902909973,103.9416902909973,0.16796739049513287,0.1656446878301634,0.16859161215705537,0.1693790597273397,1.0,1.0
103.9466902909973,103.9466902909973,103.9466902909973,0.7603044611106806,0.1659591465562596,0.25076728870809506,0.16320936360725102,1.0,1.0
103.95169029099729,103.95169029099729,103.95169029099729,0.168383427455694,0.1662620412649375,0.25095922843095103,0.16359747109324402,1.0,1.0
103.95669029099729,103.95669029099729,103.95669029099729,0.1685738938606735,0.16655348559820976,0.2511436398049565,0.1639742447132491,1.0,1.0
103.96169029099728,103.96169029099728,103.96169029099728,0.16875250678846002,0.16683327857351643,0.25132048018136965,0.16433964357179753,1.0,1.0
103.96669029099728,103.96669029099728,103.96669029099728,0.931114012073337,0.19799327192574465,0.3400728568518405,0.16681994737859376,1.0,1.0
103.97169029099727,103.97169029099727,103.97169029099727,0.4126613671097351,0.16735743111493456,0.3529692754056193,0.16715811488413543,1.0,1.0
103.97669029099727,103.97669029099727,103.97669029099727,0.16921672797133233,0.16760215603686948,0.3517879276651553,0.16748496752840109,1.0,1.0
103.98169029099726,103.98169029099726,103.98169029099726,0.1693475224779191,0.16783484068068746,0.35189257015665404,0.16780045875677044,1.0,1.0
103.98669029099726,103.98669029099726,103.98669029099726,0.16946662232363194,0.1680559788528464,0.35199169525479296,0.16810456751863184,1.0,1.0
103.99169029099725,103.99169029099725,103.99169029099725,0.441178034436602,0.16826513814344315,0.3665129187171675,0.16839725898594676,1.0,1.0
103.99669029099725,103.99669029099725,103.99669029099725,0.1696685211435014,0.16846237245234366,0.36659745493916224,0.16867847893796828,1.0,1.0
104.00169029099725,104.00169029099725,104.00169029099725,0.16975187463920774,0.16864815592759605,0.36667662814231633,0.1689482379777697,1.0,1.0
104.00669029099724,104.00669029099724,104.00669029099724,0.16982299017129784,0.16882181439943325,0.3667504069046192,0.16920648573842656,1.0,1.0
104.01169029099724,104.01169029099724,104.01169029099724,0.16988211385085056,0.16898358118410248,0.3668187679882793,0.16945318753138278,1.0,1.0
104.01669029099723,104.01669029099723,104.01669029099723,0.16992912807338428,0.1691333290932868,0.36688169447389085,0.16968831989556263,1.0,1.0
104.02169029099723,104.02169029099723,104.02169029099723,0.16996426190468586,0.16927127531197314,0.36693916814435973,0.16991185519686564,1.0,1.0
104.02669029099722,104.02669029099722,104.02669029099722,0.169987420690621,0.1693973156189859,0.3167355461879676,0.1701237837569101,1.0,1.0
104.03169029099722,104.03169029099722,104.03169029099722,0.16999861562797092,0.30089697456906556,0.3167894657909199,0.1813093957396306,1.0,1.0
104.03669029099721,104.03669029099721,104.03669029099721,0.1699979893321683,0.1696138131376422,0.3168370252258222,0.18148662722389794,1.0,1.0
104.04169029099721,104.04169029099721,104.04169029099721,0.16998515729502672,0.16970400885733283,0.31687820550808615,0.18165290418136018,1.0,1.0
104.0466902909972,104.0466902909972,104.0466902909972,0.1699603722164736,0.16978227957362702,0.2191606115758849,0.17985916856837497,1.0,1.0
104.0516902909972,104.0516902909972,104.0516902909972,0.16992343868884593,0.1698484198219148,0.19797199135420973,0.18000505275136122,1.0,1.0
104.0566902909972,104.0566902909972,104.0566902909972,0.16987468525969385,0.5733071875385095,0.19800720590403662,0.2262492752517997,1.0,1.0
104.06169029099719,104.06169029099719,104.06169029099719,0.7792204344589168,0.16994512729336583,0.2745240835914618,0.22634770892587477,1.0,1.0
104.06669029099719,104.06669029099719,104.06669029099719,0.16974113525126663,0.1699753410977573,0.2745346831984894,0.22643726641293377,1.0,1.0
104.07169029099718,104.07169029099718,104.07169029099718,0.16965633066358457,0.16999357817865765,0.2549575808991575,0.22651793938843764,1.0,1.0
104.07669029099718,104.07669029099718,104.07669029099718,0.1695596846326906,0.16999994047056657,0.25495305554563885,0.22658972266304722,1.0,1.0
104.08169029099717,104.08169029099717,104.08169029099717,0.1694509257658041,0.1699941453154836,0.25494054280021405,0.22665257659135898,1.0,1.0
104.08669029099717,104.08669029099717,104.08669029099717,0.16933017855868612,0.16997630710316244,0.25492005452595823,0.22670649907525553,1.0,1.0
104.09169029099716,104.09169029099716,104.09169029099716,0.16919789324688317,0.16994686844803378,0.254891611972745,0.2267514987481933,1.0,1.0
104.09669029099716,104.09669029099716,104.09669029099716,0.1690531196177771,0.16990486297549837,0.25485520280516055,0.22678754573462795,1.0,1.0
104.10169029099715,104.10169029099715,104.10169029099715,0.16889697900990308,0.16985140912867527,0.254810852587711,0.22681465326101485,1.0,1.0
104.10669029099715,104.10669029099715,104.10669029099715,0.20099058555344473,0.16978578230034833,0.2562175127981699,0.22683280630718042,1.0,1.0
104.11169029099715,104.11169029099715,104.11169029099715,0.16854855713616648,0.1697080606550235,0.25615763074581427,0.21816160707453855,1.0,1.0
104.11669029099714,104.11669029099714,104.11669029099714,0.16835645959154547,0.16961832999000576,0.25608986334612144,0.21816182655929878,1.0,1.0
104.12169029099714,104.12169029099714,104.12169029099714,0.16815281356290207,0.570081905243831,0.2560142457885239,0.25711223827679075,1.0,1.0
104.12669029099713,104.12669029099713,104.12669029099713,0.1679370671264519,0.16940328550298844,0.25593078106415557,0.25709661362866215,1.0,1.0
104.13169029099713,104.13169029099713,104.13169029099713,0.1677096435636005,0.1692778208728632,0.2558394985955706,0.25707309208091395,1.0,1.0
104.13669029099712,104.13669029099712,104.13669029099712,0.16747044017997875,0.1691404195072768,0.25574041090382593,0.21755926562957145,1.0,1.0
104.14169029099712,104.14169029099712,104.14169029099712,0.1672193516154071,0.16899096387404033,0.17088525945507585,0.21751280774944806,1.0,1.0
104.14669029099711,104.14669029099711,104.14669029099711,0.16695669995879622,0.16882977031349655,0.17071372913616237,0.2174570387633473,1.0,1.0
104.15169029099711,104.15169029099711,104.15169029099711,0.16668234275334434,0.1686566837513087,0.1705305269410568,0.2173919673762678,1.0,1.0
104.1566902909971,104.1566902909971,104.1566902909971,0.16639633876931662,0.1684717533947722,0.17033566581969256,0.21731760047329077,1.0,1.0
104.1616902909971,104.1616902909971,104.1616902909971,0.16609867003264264,0.7849037821676216,0.17012917459013538,0.28969887053488363,1.0,1.0
104.1666902909971,104.1666902909971,104.1666902909971,0.16578947754589893,0.16806640764202618,0.169911083040836,0.2896292179050078,1.0,1.0
104.17169029099709,104.17169029099709,104.17169029099709,0.1654685561136918,0.16784590539176764,0.16968138050198012,0.28955263464629283,1.0,1.0
104.17669029099709,104.17669029099709,104.17669029099709,0.16513609283750824,0.1676136235724777,0.16944012698628605,0.28946916027814235,1.0,1.0
104.18169029099708,104.18169029099708,104.18169029099708,0.3038893829944058,0.16736965768783654,0.18082828071614465,0.2893787977251522,1.0,1.0
104.18669029099708,104.18669029099708,104.18669029099708,0.1644367582910005,0.16711390070990842,0.17850492039861346,0.2892815735905949,1.0,1.0
104.19169029099707,104.19169029099707,104.19169029099707,0.16406998190561828,0.16684653539939956,0.17824394249070422,0.28917751918461637,1.0,1.0
104.19669029099707,104.19669029099707,104.19669029099707,0.16369163605148557,0.1665673190112221,0.1779721717679979,0.2890666548914686,1.0,1.0
104.20169029099706,104.20169029099706,104.20169029099706,0.1633019063170866,0.1662764305906189,0.17768962523856704,0.25490279620448153,1.0,1.0
104.20669029099706,104.20669029099706,104.20669029099706,0.16290108172170148,0.3928661179272076,0.17739636950023535,0.26986724533576256,1.0,1.0
104.21169029099705,104.21169029099705,104.21169029099705,0.7897296806928827,0.16566016603577657,0.2620899171339958,0.2697268979511196,1.0,1.0
104.21669029099705,104.21669029099705,104.21669029099705,0.16206521191241996,0.1653344441060695,0.26187744977267263,0.26957937010161126,1.0,1.0
104.22169029099705,104.22169029099705,104.22169029099705,0.16163065680536323,0.1649974885685839,0.26165804698781897,0.269424712804079,1.0,1.0
104.22669029099704,104.22669029099704,104.22669029099704,0.1611847248200345,0.16464881309382348,0.26143174452305107,0.26926294702182657,1.0,1.0
104.23169029099704,104.23169029099704,104.23169029099704,0.16072762822527842,0.1642886250102794,0.2611985930043261,0.2690941087189391,1.0,1.0
104.23669029099703,104.23669029099703,104.23669029099703,0.1602595782462251,0.16391713117881815,0.2609586498210562,0.26891824079980936,1.0,1.0
104.24169029099703,104.24169029099703,104.24169029099703,0.15978071948874287,0.16353447026916954,0.2607119795862603,0.188371623968256,1.0,1.0
104.24669029099702,104.24669029099702,104.24669029099702,0.15929042430359946,0.16313998183415326,0.2604586182590317,0.18810074357876697,1.0,1.0
104.25169029099702,104.25169029099702,104.25169029099702,0.15878948526228548,0.16273447447653436,0.2601986412788766,0.18781981008810883,1.0,1.0
104.25669029099701,104.25669029099701,104.25669029099701,0.1582777766203945,0.1623178072229193,0.25993211279440753,0.18752887123038764,1.0,1.0
104.26169029099701,104.26169029099701,104.26169029099701,0.1577549968577137,0.16188965581295206,0.25169092332227266,0.1872279524843622,1.0,1.0
104.266690290997,104.266690290997,104.266690290997,0.15722158325023805,0.16145046253955347,0.2514026045121088,0.18691710982203114,1.0,1.0
104.271690290997,104.271690290997,104.271690290997,0.4716422268168157,0.16099996666980035,0.2746338180243107,0.1865963755677669,1.0,1.0
104.276690290997,104.276690290997,104.276690290997,0.15612255784687354,0.1605385965067659,0.274358233587631,0.18626581932922667,1.0,1.0
104.28169029099699,104.28169029099699,104.28169029099699,0.15555681678634783,0.16006576538694584,0.2740767976360719,0.18592546979320126,1.0,1.0
104.28669029099699,104.28669029099699,104.28669029099699,0.1549809631396048,0.15958238962291746,0.27378958532839226,0.1628295192731741,1.0,1.0
104.29169029099698,104.29169029099698,104.29169029099698,0.15439436109267712,0.15908779446396326,0.19357434662143075,0.1624193787091258,1.0,1.0
104.29669029099698,104.29669029099698,104.29669029099698,0.15379756494753943,0.1585825470136012,0.19315230402298403,0.16199803607868074,1.0,1.0
104.30169029099697,104.30169029099697,104.30169029099697,0.1531901007052079,0.15806613970328026,0.19272190757100868,0.16156549608060458,1.0,1.0
104.30669029099697,104.30669029099697,104.30669029099697,0.15257247275822436,0.1575390883720732,0.19228325174940217,0.16112182601455816,1.0,1.0
104.31169029099696,104.31169029099696,104.31169029099696,0.17408473167758767,0.1570013023388715,0.19300869568841936,0.16066707459070884,1.0,1.0
104.31669029099696,104.31669029099696,104.31669029099696,0.15130649607358362,0.15645276557367147,0.1925565224025022,0.16020127646228716,1.0,1.0
104.32169029099695,104.32169029099695,104.32169029099695,0.1506581629826811,0.1558934860047507,0.1920963678842115,0.1597244579922785,1.0,1.0
104.32669029099695,104.32669029099695,104.32669029099695,0.14999980462702375,0.5588813328916307,0.19162834063986753,0.20825527158344515,1.0,1.0
104.33169029099695,104.33169029099695,104.33169029099695,0.14933155273203233,0.15474341292110758,0.1911525155134186,0.20787423255060236,1.0,1.0
104.33669029099694,104.33669029099694,104.33669029099694,0.1486533308924897,0.1541526532355175,0.19066897119209977,0.20748540835651605,1.0,1.0
104.34169029099694,104.34169029099694,104.34169029099694,0.14796522043133092,0.15355145374622156,0.19017780703708825,0.20708888538231982,1.0,1.0
104.34669029099693,104.34669029099693,104.34669029099693,0.14726723227459962,0.35764065679312285,0.189679101394481,0.22192530989043446,1.0,1.0
104.35169029099693,104.35169029099693,104.35169029099693,0.14655949503374338,0.1523178547762775,0.1530285675047526,0.22154193033365832,1.0,1.0
104.35669029099692,104.35669029099692,104.35669029099692,0.31419404161787107,0.1516859534695799,0.1675237897808152,0.22115170384927932,1.0,1.0
104.36169029099692,104.36169029099692,104.36169029099692,0.14511543146075398,0.15104363110232497,0.16693713028408472,0.2207547206594199,1.0,1.0
104.36669029099691,104.36669029099691,104.36669029099691,0.1443791009754005,0.15039133608430583,0.1663419507638093,0.22035104974593356,1.0,1.0
104.37169029099691,104.37169029099691,104.37169029099691,0.14363323893137955,0.14972890236425743,0.16573834837086884,0.21994078462195726,1.0,1.0
104.3766902909969,104.3766902909969,104.3766902909969,0.14287808336509297,0.1490565700850071,0.16512640189668823,0.21952400448329973,1.0,1.0
104.3816902909969,104.3816902909969,104.3816902909969,0.1421136558530083,0.14837434917983408,0.16450621984430047,0.2191008129383571,1.0,1.0
104.3866902909969,104.3866902909969,104.3866902909969,0.14133983473141673,0.14768209610169372,0.1638778758934771,0.21867128538457403,1.0,1.0
104.39169029099689,104.39169029099689,104.39169029099689,0.14055708349811097,0.14698029271012833,0.161853740155264,0.21823552276395713,1.0,1.0
104.39669029099689,104.39669029099689,104.39669029099689,0.13976526228598232,0.14626877623117832,0.1612038313796712,0.21779362097256183,1.0,1.0
104.40169029099688,104.40169029099688,104.40169029099688,0.1389643736811098,0.1455475354338884,0.16054594729839697,0.21734567620981163,1.0,1.0
104.40669029099688,104.40669029099688,104.40669029099688,0.1381545344214708,0.14481668144751048,0.1598801803492428,0.1703763874566302,1.0,1.0
104.41169029099687,104.41169029099687,104.41169029099687,0.1373360897163117,0.14407657175247465,0.15920663498919213,0.1697907442136169,1.0,1.0
104.41669029099687,104.41669029099687,104.41669029099687,0.13650870989476577,0.14332683739594512,0.1585254035409252,0.16919698042300357,1.0,1.0
104.42169029099686,104.42169029099686,104.42169029099686,0.13567262002742062,0.14256770611883252,0.15783658686534457,0.16859518691762151,1.0,1.0
104.42669029099686,104.42669029099686,104.42669029099686,0.13482831242879006,0.14179969587753216,0.15714031281457463,0.1472645805998824,1.0,0.9632143197800174
104.43169029099685,104.43169029099685,104.43169029099685,0.13397521458381698,0.1410221731687893,0.15643667231535577,0.1465597641812353,1.0,0.9215431902265858
104.43669029099685,104.43669029099685,104.43669029099685,0.1331139435818978,0.14023579146827553,0.1393198535092415,0.1458453119658177,0.0,0.8793023597908372
104.44169029099685,104.44169029099685,104.44169029099685,0.13224413999987428,0.1394401461077856,0.13851677908868337,0.14512129758595316,0.0,0.8364961818646813
104.44669029099684,104.44669029099684,104.44669029099684,0.1313662525690423,0.13863570951685844,0.13770487848593504,0.14438779427995996,0.0,0.7931289865451043
104.45169029099684,104.45169029099684,104.45169029099684,0.13048016929788903,0.13782234489371206,0.136884235806051,0.1436448782460822,0.0,0.7492052789299128
104.45669029099683,104.45669029099683,104.45669029099683,0.1295860783256146,0.13700024204519612,0.1360549312743375,0.1428926218302235,0.0,0.7047293363535172
104.46169029099683,104.46169029099683,104.46169029099683,0.12868404514535087,0.1361694572537371,0.13521704808383503,0.14213110047823854,0.0,0.6597056194299208
104.46669029099682,104.46669029099682,104.46669029099682,0.1277740510316543,0.13532995415660284,0.13437067684097648,0.14136039724617017,0.0,0.6141390387131757
104.47169029099682,104.47169029099682,104.47169029099682,0.12685632818480128,0.27570172808398385,0.13351589207709252,0.1529159137763424,0.0,1.0
104.47669029099681,104.47669029099681,104.47669029099681,0.17224760372902476,0.1336255760190958,0.13586730738177757,0.15219101210385444,0.0,1.0
104.48169029099681,104.48169029099681,104.48169029099681,0.12499782886131569,0.1327606482973666,0.13501670348290487,0.15145852800944126,0.0,1.0
104.4866902909968,104.4866902909968,104.4866902909968,0.12405746115880623,0.16288584434849973,0.13415842821972784,0.15260137990288644,0.0,1.0
104.4916902909968,104.4916902909968,104.4916902909968,0.12310946756842296,0.13100637208135285,0.13329255447713023,0.15186332452451554,0.0,1.0
104.4966902909968,104.4966902909968,104.4966902909968,0.12215435735034437,0.13011713264576477,0.13241920659574888,0.1511182060632183,0.0,1.0
104.50169029099679,104.50169029099679,104.50169029099679,0.12119171497575955,0.12921952956386096,0.13153847164442586,0.15036612219283402,0.0,1.0
104.50669029099679,104.50669029099679,104.50669029099679,0.1202223249804019,0.12831441786923825,0.13065045109760454,0.14960718718846813,0.0,1.0
104.51169029099678,104.51169029099678,104.51169029099678,0.1192456707857172,0.12740120505818903,0.12975525466972346,0.1488415224870391,0.0,1.0
104.51669029099678,104.51669029099678,104.51669029099678,0.11826219405476143,0.12648036604152604,0.12885297881626515,0.1480692377836761,0.0,1.0
104.52169029099677,104.52169029099677,104.52169029099677,0.1172719783164004,0.12555197698927847,0.12794374904893116,0.14729047224463823,0.0,0.964745121353912
104.52669029099677,104.52669029099677,104.52669029099677,0.11627484533233548,0.12461581937400132,0.127027653011598,0.1465053271023335,0.0,0.9183246860779701
104.53169029099676,104.53169029099676,104.53169029099676,0.11527120042256782,0.12367233018101888,0.12610480986589417,0.14571393644959577,0.0,0.8715349951100567
104.53669029099676,104.53669029099676,104.53669029099676,0.11426102031165844,0.12272146476717183,0.1251753265943068,0.1449164224657499,0.0,0.8243832721049278
104.54169029099675,104.54169029099675,104.54169029099675,0.11324436146704328,0.12176326765048594,0.12423931043981451,0.1441129080496638,0.0,0.776876783259158
104.54669029099675,104.54669029099675,104.54669029099675,0.8616408254779936,0.12079798038135438,0.2466101686050182,0.14330353271916388,1.0,0.7290237773383322
104.55169029099675,104.55169029099675,104.55169029099675,0.11119223006324072,0.11982550582014503,0.24613720616967819,0.12916103050389227,1.0,0.0
104.55669029099674,104.55669029099674,104.55669029099674,0.11015692248300592,0.11884608920675689,0.24390081215998063,0.1282550552528397,1.0,0.0
104.56169029099674,104.56169029099674,104.56169029099674,0.10911561834980082,0.11785980988025618,0.24342394342286194,0.12734188534591057,1.0,0.0
104.56669029099673,104.56669029099673,104.56669029099673,0.10806841156097363,0.11686675488833974,0.24294700909003933,0.12414239110901647,1.0,0.0
104.57169029099673,104.57169029099673,104.57169029099673,0.10701536539848688,0.11586697576944134,0.24247014443008258,0.12319796540331505,1.0,0.0
104.57669029099672,104.57669029099672,104.57669029099672,0.1059566589879694,0.11486065767908397,0.24199347377606834,0.12224624773044641,1.0,0.0
104.58169029099672,104.58169029099672,104.58169029099672,0.10489234512279179,0.11384784002812127,0.24151713628254362,0.12128735641162837,1.0,0.0
104.58669029099671,104.58669029099671,104.58669029099671,0.10382247292704093,0.29877261035145897,0.24104124807163768,0.13878275470772772,1.0,0.4617400972014923
104.59169029099671,104.59169029099671,104.59169029099671,0.10274723728382619,0.11180301277040695,0.24056594692506458,0.1379400446485959,1.0,0.4119162294240235
104.5966902909967,104.5966902909967,104.5966902909967,0.10166685403974636,0.11077143737545103,0.2400913627906756,0.13709310773766384,1.0,0.3618424558777446
104.6016902909967,104.6016902909967,104.6016902909967,0.10058113624844851,0.10973358747337134,0.23961761828193678,0.13624208332977347,1.0,0.3115270156920516
104.6066902909967,104.6066902909967,104.6066902909967,0.09949044466523906,0.10868986340528966,0.239144851081457,0.1353871458746633,1.0,0.2609802229252734
104.61169029099669,104.61169029099669,104.61169029099669,0.09839479803599493,0.10764026327666952,0.23867318704324023,0.13452844711139758,1.0,0.21021104890389697
104.61669029099669,104.61669029099669,104.61669029099669,0.09729433081377512,0.10658492170782145,0.23820275626289986,0.13366615057114492,1.0,0.15922916214348562
104.62169029099668,104.62169029099668,104.62169029099668,0.09618915983867636,0.10552395277383897,0.23773369009858905,0.13280042549729917,1.0,0.10804456888567171
104.62669029099668,104.62669029099668,104.62669029099668,0.09507927348861236,0.10445731544924573,0.10334773662343667,0.1319314279471699,0.0,0.056666495766202966
104.63169029099667,104.63169029099667,104.63169029099667,0.09396474044514025,0.10338506339878631,0.10227344934765623,0.1310593249190481,0.0,0.005104816288642259
104.63669029099667,104.63669029099667,104.63669029099667,0.09284619438424889,0.10230793813747914,0.10119399787789801,0.1301843086881988,0.0,0.0
104.64169029099666,104.64169029099666,104.64169029099666,0.09172317385214004,0.10122535178114572,0.1001094793706629,0.12930654099759278,0.0,0.0
104.64669029099666,104.64669029099666,104.64669029099666,0.0905959886210245,0.10013765236947648,0.09902000345092897,0.1284261985879763,0.0,0.0
104.65169029099665,104.65169029099665,104.65169029099665,0.08946473874143165,0.09904493305028769,0.09792568240171112,0.12754346279531362,0.0,0.0
104.65669029099665,104.65669029099665,104.65669029099665,0.24952354494133233,0.09794727378364455,0.11304485124212009,0.12665851140672735,0.0,0.0
104.66169029099665,104.66169029099665,104.66169029099665,0.08719048707750707,0.09684485828341526,0.11210095652165035,0.12577153197493546,0.0,0.0
104.66669029099664,104.66669029099664,104.66669029099664,0.3222987337603492,0.09573771989024718,0.13559207184325467,0.10398205686520937,0.0,0.0
104.67169029099664,104.67169029099664,104.67169029099664,0.0849013737622934,0.09462606361378449,0.13481807363193352,0.10291090462422287,0.0,0.0
104.67669029099663,104.67669029099663,104.67669029099663,0.08375154175479378,0.09350993895736669,0.13404588281190627,0.10183450606093734,0.0,0.0
104.68169029099663,104.68169029099663,104.68169029099663,0.08259832697218754,0.09238945374779152,0.13327572402512686,0.10075298287732,0.0,0.0
104.68669029099662,104.68669029099662,104.68669029099662,0.08144183648146815,0.09126470897752315,0.1325078115575964,0.09966643668900406,0.0,0.0
104.69169029099662,104.69169029099662,104.69169029099662,0.08028220273127074,0.09013583885203204,0.1317423664238692,0.09857497806359787,0.0,0.0
104.69669029099661,104.69669029099661,104.69669029099661,0.0791195086739516,0.0890029120682891,0.13097960900930425,0.09747871358179758,0.0,0.0
104.70169029099661,104.70169029099661,104.70169029099661,0.07795398436862337,0.08786619438813122,0.13021976540356608,0.09637775843401042,0.0,0.0
104.7066902909966,104.7066902909966,104.7066902909966,0.07678559643511783,0.08672559801773537,0.1294630633619419,0.09527222697778392,0.0,0.0
104.7116902909966,104.7116902909966,104.7116902909966,0.0756145662426617,0.08558137868205316,0.12870973802078708,0.09416224587648304,0.0,0.0
104.7166902909966,104.7166902909966,104.7166902909966,0.07444095468325536,0.08443357366168042,0.12796000022091647,0.09304789456625018,0.0,0.0
104.72169029099659,104.72169029099659,104.72169029099659,0.07326491332587333,0.08328234535530887,0.12721408958123723,0.0919293030458924,0.0,0.0
104.72669029099659,104.72669029099659,104.72669029099659,0.07208654237032168,0.08212778457654729,0.12647223752775158,0.09080658418908771,0.0,0.0
104.73169029099658,104.73169029099658,104.73169029099658,0.2674428632345048,0.0809700178764104,0.14129874722140445,0.08967985306961657,0.0,0.0
104.73669029099658,104.73669029099658,104.73669029099658,0.06972328800587131,0.07980913418711325,0.12797575768277225,0.08854922578834917,0.0,0.0
104.74169029099657,104.74169029099657,104.74169029099657,0.06853864124927084,0.07864527671024167,0.12726450732115904,0.08741481538344643,0.0,0.0
104.74669029099657,104.74669029099657,104.74669029099657,0.0673521413833771,0.503310143789292,0.09993745367245942,0.15133096779240335,0.0,1.0
104.75169029099656,104.75169029099656,104.75169029099656,0.06616390455024986,0.07630908432473388,0.09904838885084448,0.15068302273381823,0.0,1.0
104.75669029099656,104.75669029099656,104.75669029099656,0.06497404996977381,0.0751369793812429,0.0981633332023531,0.15003904292506937,0.0,1.0
104.76169029099655,104.76169029099655,104.76169029099655,0.06378267564226815,0.07396232153833082,0.09728257354860041,0.14939922277940762,0.0,1.0
104.76669029099655,104.76669029099655,104.76669029099655,0.15782162414654918,0.07278535784310677,0.10298582371454154,0.14876376102000072,0.0,1.0
104.77169029099655,104.77169029099655,104.77169029099655,0.06139599087823881,0.07160607332053244,0.10217066414801325,0.1481328512214374,0.0,1.0
104.77669029099654,104.77669029099654,104.77669029099654,0.06020086937499214,0.07042463302350403,0.10136128508330834,0.14750668975417264,0.0,0.9775286315179111
104.78169029099654,104.78169029099654,104.78169029099654,0.059004716146761525,0.06924112635766483,0.10055797291502165,0.14688546597152766,0.0,0.9407997812196125
104.78669029099653,104.78669029099653,104.78669029099653,0.05780766670654741,0.06805570343328264,0.09976102482263868,0.14626937718577454,0.0,0.9043745292982475
104.79169029099653,104.79169029099653,104.79169029099653,0.05660984867534144,0.06686850378800527,0.09897073605288247,0.1456586153602739,0.0,0.8682642252766966
104.79669029099652,104.79669029099652,104.79669029099652,0.16183811467393205,0.06567958190998505,0.10528931128818574,0.14505337267221324,0.0,0.8324802313200064
104.80169029099652,104.80169029099652,104.80169029099652,0.054212329135978544,0.0644891142367843,0.1045659643031456,0.14445384028827937,0.0,0.7970338498490102
104.80669029099651,104.80669029099651,104.80669029099651,0.05301287542218649,0.06329717469477736,0.10385041815634628,0.14386020795146,0.0,0.7619362991106351
104.81169029099651,104.81169029099651,104.81169029099651,0.0518131281698208,0.06210394202819884,0.08051298993626738,0.14327266546910056,0.0,0.7271988011568524
104.8166902909965,104.8166902909965,104.8166902909965,0.050613193995295166,0.06090946619272725,0.07961541280261614,0.14269140038517542,0.0,0.6928324442214883
104.8216902909965,104.8216902909965,104.8216902909965,0.05058679943778579,0.05971390916287312,0.07877154555451721,0.14211659898231463,0.0,0.6588482419634255
104.8266902909965,104.8266902909965,104.8266902909965,0.05178673512928583,0.05851738651911616,0.07803238799177496,0.06766518075450179,0.0,0.0
104.83169029099649,104.83169029099649,104.83169029099649,0.05298648887195554,0.05732000198472097,0.0774010509250463,0.06648295517540541,0.0,0.0
104.83669029099649,104.83669029099649,104.83669029099649,0.05418594754863416,0.05612189530364681,0.07688028546508788,0.06529923177362791,0.0,0.0
104.84169029099648,104.84169029099648,104.84169029099648,0.05538499268789942,0.05492317913106112,0.0764724298334236,0.06411413910077617,0.0,0.0
104.84669029099648,104.84669029099648,104.84669029099648,0.05658348996794871,0.25919919593576957,0.0670179764516323,0.0893226175793186,0.0,0.0
104.85169029099647,104.85169029099647,104.85169029099647,0.057781331922043,0.05252437368665988,0.06681680238977561,0.08849006309832533,0.0,0.0
104.85669029099647,104.85669029099647,104.85669029099647,0.05897840178634641,0.06999977397321874,0.06674862756513988,0.08846899163482934,0.0,0.0
104.86169029099646,104.86169029099646,104.86169029099646,0.06017456381037185,0.050158705742792964,0.06681386930845863,0.08766048207311336,0.0,0.0
104.86669029099646,104.86669029099646,104.86669029099646,0.061369700006124905,0.05107542131346293,0.06701212756857482,0.08693635666724786,0.0,0.0
104.87169029099645,104.87169029099645,104.87169029099645,0.06256371564090947,0.05227529797884834,0.06734219860534266,0.08630910719223442,0.0,0.0
104.87669029099645,104.87669029099645,104.87669029099645,0.06375647635340848,0.053474947947715595,0.05614315425978743,0.08578095444476233,0.0,0.0
104.88169029099645,104.88169029099645,104.88169029099645,0.06494786331679338,0.054674251806513106,0.05685074133360191,0.08535381592334758,0.0,0.0
104.88669029099644,104.88669029099644,104.88669029099644,0.06613774695542456,0.055873085931990266,0.05770395634978881,0.08502927866698684,0.0,0.0
104.89169029099644,104.89169029099644,104.89169029099644,0.06732601997621916,0.05707133376137202,0.05869632546515864,0.08480856723081905,0.0,0.0
104.89669029099643,104.89669029099643,104.89669029099643,0.06851256310751937,0.05826887588399216,0.05982078122763116,0.08469252772411906,0.0,0.0
104.90169029099643,104.90169029099643,104.90169029099643,0.06969725098996905,0.059465589414090074,0.061009782199837485,0.08468160714319257,0.0,0.0
104.90669029099642,104.90669029099642,104.90669029099642,0.07087996532844401,0.4900057026479993,0.0621978697056601,0.14820106644272923,0.0,1.0
104.91169029099642,104.91169029099642,104.91169029099642,0.0720605770650419,0.15949247447035153,0.06338491475635455,0.15280076167622317,0.0,1.0
104.91669029099641,104.91669029099641,104.91669029099641,0.48252141004661586,0.06304956219267265,0.1355943290066818,0.15296951176246637,0.0,1.0
104.92169029099641,104.92169029099641,104.92169029099641,0.074415118015067,0.06424177913783793,0.13616241802405366,0.15319619672222806,0.0,1.0
104.9266902909964,104.9266902909964,104.9266902909964,0.07558877567180194,0.1598579351252094,0.13673771356714357,0.14445490890136697,0.0,0.7970970298675765
104.9316902909964,104.9316902909964,104.9316902909964,0.0767598775798442,0.0666218082913458,0.1373200261871221,0.14481781373506608,0.0,0.818553190564954
104.9366902909964,104.9366902909964,104.9366902909964,0.07792830393877845,0.0678093904201448,0.13790916443215742,0.14475266229695885,0.0,0.8147012172764058
104.94169029099639,104.94169029099639,104.94169029099639,0.07909392880467962,0.06899518591965796,0.1385049352897769,0.14523639604779143,0.0,0.8433011920599175
104.94669029099639,104.94669029099639,104.94669029099639,0.0802566677543542,0.07017909743121843,0.13910714535794783,0.1457339568454122,0.0,0.8727186685968059
104.95169029099638,104.95169029099638,104.95169029099638,0.08141631391601913,0.07136094592925397,0.13971559591968222,0.14623907152977875,0.0,0.9025827564567087
104.95669029099638,104.95669029099638,104.95669029099638,0.0825728807820974,0.4867583664524643,0.14033009216101924,0.18977750030030704,0.0,1.0
104.96169029099637,104.96169029099637,104.96169029099637,0.08372621375355697,0.07371821700240447,0.14095043680643826,0.1901797004860042,0.0,1.0
104.96669029099637,104.96669029099637,104.96669029099637,0.08487611650734653,0.07489332179697329,0.14157642895178582,0.1905879559988907,0.0,1.0
104.97169029099636,104.97169029099636,104.97169029099636,0.08602254713878711,0.0760659479305419,0.1422078692896088,0.19100215883050764,0.056566619717688504,1.0
104.97669029099636,104.97669029099636,104.97669029099636,0.08716540057040427,0.07723598581893834,0.14284455825286202,0.19142219869559127,0.12030341059295396,1.0
104.98169029099635,104.98169029099635,104.98169029099635,0.0883044795547757,0.07840325748459799,0.14348629278461708,0.19184796143611707,0.18454529636228714,1.0
104.98669029099635,104.98669029099635,104.98669029099635,0.0894398211614547,0.0795677579264481,0.14413287523965457,0.1489789591664256,0.24927249142746932,1.0
104.99169029099635,104.99169029099635,104.99169029099635,0.09057115757674586,0.08072925607847634,0.14478410207431316,0.1449558225295065,0.31446461971709994,0.8267127370801715
104.99669029099634,104.99669029099634,104.99669029099634,0.21076115993335034,0.08188758245274949,0.09584894848096896,0.14554324456810094,0.0,0.8614431139913632
105.00169029099634,105.00169029099634,105.00169029099634,0.09282133105620094,0.08304275111946138,0.09684734266758678,0.14613659469766094,0.0,0.8965239796824623
105.00669029099633,105.00669029099633,105.00669029099633,0.09394036275607459,0.08419484084113285,0.09784606956067157,0.14213301005550727,0.0,0.6598185200940543
105.01169029099633,105.01169029099633,105.01169029099633,0.09505480296695633,0.08534335839360378,0.09884488796106336,0.14275715924274016,0.0,0.6967203302019623
105.01669029099632,105.01669029099632,105.01669029099632,0.09616476413909973,0.08648836264198023,0.09984357494467182,0.1433866773109195,0.0,0.73393956670284
105.02169029099632,105.02169029099632,105.02169029099632,0.09727003943075396,0.08762966304971537,0.10084190669087476,0.14402136340018507,0.0,0.7714643540826713
105.02669029099631,105.02669029099631,105.02669029099631,0.09837067513730156,0.0887672700999548,0.10183967158257666,0.14466102022813293,0.0,0.8092830283387534
105.03169029099631,105.03169029099631,105.03169029099631,0.09946637733466811,0.08990092306435274,0.10283665548369779,0.14530544633181625,0.0,0.8473836783005512
105.0366902909963,105.0366902909963,105.0366902909963,0.10055709971303538,0.09103055855795666,0.10383264570909492,0.08260282191718518,0.0,0.0
105.0416902909963,105.0416902909963,105.0416902909963,0.10164299607750615,0.09215627758634902,0.10482745132517546,0.08375187423256343,0.0,0.0
105.0466902909963,105.0466902909963,105.0466902909963,0.10272358081185029,0.09327766144732925,0.10582086624419607,0.08489763522721479,0.0,0.0
105.05169029099629,105.05169029099629,105.05169029099629,0.10379889239856013,0.09439471683248027,0.10681269329112868,0.08603998692689484,0.0,0.0
105.05669029099629,105.05669029099629,105.05669029099629,0.10486885432487188,0.09550735780769314,0.10780274020186353,0.08717881318591233,0.0,0.0
105.06169029099628,105.06169029099628,105.06169029099628,0.10593330406785628,0.09661542714890099,0.1087908189260992,0.08831399856302356,0.0,0.0
105.06669029099628,105.06669029099628,105.06669029099628,0.10699214000134044,0.09771881781172734,0.10977673732810332,0.08944542216070764,0.0,0.0
105.07169029099627,105.07169029099627,105.07169029099627,0.4407763715020613,0.09881739982024589,0.15388623801858178,0.09057296866627947,1.0,0.0
105.07669029099627,105.07669029099627,105.07669029099627,0.10909265927052902,0.09991121568205298,0.14713440492336635,0.09169653663970745,0.5497455336789537,0.0
105.08169029099626,105.08169029099626,105.08169029099626,0.1101340155702855,0.1009999047816713,0.147878799968302,0.09281600062754981,0.6242644181672612,0.0
105.08669029099626,105.08669029099626,105.08669029099626,0.11116936607779052,0.10208349981084126,0.14862370013738474,0.09393123457790131,0.6988338689351612,0.0
105.09169029099625,105.09169029099625,105.09169029099625,0.11219887059799383,0.10316211758697186,0.1493689306040614,0.09504214951548755,0.7734363846843706,0.0
