timestamp,left_raw,right_raw
100.976690291,0.16829300203194858,0.16958745575044074
100.98169029099999,0.1680853900072211,0.16948204304333636
100.98669029099999,0.1678659523653814,0.16936466480740878
100.99169029099998,0.16763473556043024,0.16923535757673278
100.99669029099998,0.16739177797300406,0.29891235845405534
101.00169029099997,0.16713707484175702,0.16894102610071401
101.00669029099997,0.16687051277266318,0.16877586074201567
101.01169029099997,0.16659255604067646,0.16859911485069642
101.01669029099996,0.16630289408357948,0.16841046253481423
101.02169029099996,0.1660014248192217,0.1682097889557817
101.02669029099995,0.16568848141715609,0.31192738623779775
101.03169029099995,0.16536398700596697,0.1677732750910462
101.03669029099994,0.4751612124178915,0.16753726674883915
101.04169029099994,0.3906835388269396,0.16728946184737695
101.04669029099993,0.1643211825907325,0.16703002032886516
101.05169029099993,0.16395074553107875,0.16675890647077574
101.05669029099992,0.1635688772064167,0.1664760796992597
101.06169029099992,0.7939574729500092,0.1661815295163196
101.06669029099992,0.1627709670956398,0.16587536685190923
101.07169029099991,0.16235515572872464,0.16555769548317775
101.0766902909999,0.16192806959945172,0.16522842800487453
101.0816902909999,0.16148979920213946,0.16488764643695378
101.0866902909999,0.16104042589173476,0.16453542361663417
101.09169029099989,0.16057990020014773,0.16417169742589735
101.09669029099989,0.1601083650902416,0.16379660424876585
101.10169029099988,0.15962578955276846,0.1634101008848923
101.10669029099988,0.2054408360898556,0.16301224975632783
101.11169029099987,0.1586277370104105,0.16260304557782632
101.11669029099987,0.15811236865397962,0.1621825833818575
101.12169029099987,0.157586274103217,0.16175099118089542
101.12669029099986,0.15704943535042012,0.16130823895509344
101.13169029099986,0.15650169805092107,0.30996211093999193
101.13669029099985,0.43440478870506477,0.16038915393563094
101.14169029099985,0.15537471048041118,0.39328624444493887
101.14669029099984,0.15479531562021237,0.15942610248534683
101.15169029099984,0.35802996595908276,0.15892807520954372
101.15669029099983,0.15360515148033438,0.15841918846983968
101.16169029099983,0.15299449551202374,0.1578994398495779
101.16669029099982,0.7146970323997828,0.15736895558804478
101.17169029099982,0.15174247174717723,0.156827756347398
101.17669029099982,0.15110108589950447,0.15627577836355877
101.18169029099981,0.1504495402776539,0.15571312044886057
101.1866902909998,0.149788125011396,0.15514007571913876
101.1916902909998,0.5960515792279695,0.15455642621930893
101.1966902909998,0.1484352069704644,0.1539622728324736
101.20169029099979,0.1477439616453006,0.1533577610727192
101.20669029099979,0.14704284114519275,0.15274280681491814
101.21169029099978,0.14633220543137276,0.2140844013175086
101.21669029099978,0.14561183967079058,0.1514824357250452
101.22169029099977,0.14488198733623178,0.1508370240300823
101.22669029099977,0.14414252028157315,0.25392697458423374
101.23169029099977,0.1433936484719992,0.3051799558446505
101.23669029099976,0.1426356091974404,0.1488403496901297
101.24169029099976,0.14186812090404546,0.14815486145494547
101.24669029099975,0.14109159989338574,0.14745972236950472
101.25169029099975,0.1403059014555634,0.14675476443449223
101.25669029099974,0.13951112631026596,0.14604008159759468
101.26169029099974,0.6611252458550811,0.1453156851975967
101.26669029099973,0.8997097675722014,0.14458207569348702
101.27169029099973,0.13707352098714023,0.14383881161982537
101.27669029099972,0.2925275275371414,0.1430861135998898
101.28169029099972,0.1354047469373528,0.14232422248258514
101.28669029099972,0.13455751439170738,0.14155304881976796
101.29169029099971,0.1337018183521149,0.1407727114492223
101.2966902909997,0.13283781769715092,0.13998336800040234
101.3016902909997,0.13196546298838632,0.1391849499345499
101.3066902909997,0.13108491194945524,0.13837761354262862
101.31169029099969,0.13019612073226602,0.13756129554432328
101.31669029099969,0.12929961332460474,0.1367365527111083
101.32169029099968,0.1283949544832064,0.13590289414786672
101.32669029099968,0.12748255594095964,0.1350607545774053
101.33169029099967,0.12656242369038545,0.1342101250769015
101.33669029099967,0.12563450899239276,0.13335093566071832
101.34169029099967,0.12469911047840056,0.13248349878505042
101.34669029099966,0.12375631336285806,0.13160789241511062
101.35169029099966,0.12280604286959844,0.1307240172209849
101.35669029099965,0.6766053911267498,0.6462955178325737
101.36169029099965,0.12088381577116578,0.128932205186977
101.36669029099964,0.11991202150710464,0.29288490895626595
101.37169029099964,0.11893318252473231,0.12710876148642983
101.37669029099963,0.11794746403467228,0.12618541278866197
101.38169029099963,0.11695502878640023,0.12525453307390338
101.38669029099962,0.11595593307562056,0.1243161675984099
101.39169029099962,0.11495012000222468,0.12337023338512414
101.39669029099962,0.1139378018538045,0.12241695050418414
101.40169029099961,0.1129191725825292,0.12145651939924394
101.4066902909996,0.1118942210471849,0.12048890831114163
101.4116902909996,0.12304401890308839,0.613499968835177
101.4166902909996,0.10982581582389983,0.5550941046224196
101.42169029099959,0.10878272918593875,0.11754427111254233
101.42669029099959,0.10773353040440695,0.11654892466263914
101.43169029099958,0.10667872429282006,0.28225134403462065
101.43669029099958,0.10561822498769108,0.11453872053133717
101.44169029099957,0.10455213236750409,0.1135238363034407
101.44669029099957,0.10348059511449957,0.11250261199759952
101.45169029099957,0.31516351577520607,0.11147506234778112
101.45669029099956,0.10132156379504395,0.11044149162233857
101.46169029099956,0.10023430554692563,0.10940182496805775
101.46669029099955,0.09914202790786544,0.10835622300871962
101.47169029099955,0.09804483046832813,0.10730477884816542
101.47669029099954,0.09694280673464255,0.10624757810420614
101.48169029099954,0.09583608770867645,0.10518475115816787
101.48669029099953,0.09472483860950655,0.10411647033178292
101.49169029099953,0.09360900251671841,0.10304263894651072
101.49669029099952,0.09248892105256921,0.10196364359337882
101.50169029099952,0.09136456945000881,0.10087942611487548
101.50669029099952,0.09023609449514654,0.09979013717261001
101.51169029099951,0.08910356648718486,0.4656445015337504
101.5166902909995,0.08796714611442061,0.09759668164112158
101.5216902909995,0.0868268944619136,0.09649272731190559
101.5266902909995,0.08568299737553808,0.0953841707419568
101.53169029099949,0.0845354946695117,0.09427102826129048
101.53669029099949,0.08338453295418738,0.48935784141819394
101.54169029099948,0.08223029109772659,0.09203163432283937
101.54669029099948,0.08107278377384196,0.09090555922041783
101.55169029099947,0.0799121492289604,0.08977536674869517
101.55669029099947,0.07874857108617325,0.08864125999677573
101.56169029099946,0.08188350125365584,0.08750330336664727
101.56669029099946,0.07641284920448033,0.27116135228991556
101.57169029099946,0.07524098569341911,0.08521611812324771
101.57669029099945,0.30236068220430723,0.08406721776509386
101.58169029099945,0.07288981895699595,0.5398264336447987
101.58669029099944,0.5000721339055161,0.08175933723512181
101.59169029099944,0.07052947470579098,0.08060058014244156
101.59669029099943,0.06934614474038629,0.07943871976741634
101.60169029099943,0.0681609093805274,0.07827396000719411
101.60669029099942,0.06697383346341029,0.07710633489254462
101.61169029099942,0.06578507461875172,0.07593602194679464
101.61669029099941,0.064594702576565,0.07476305702342052
101.62169029099941,0.06340292602758564,0.07358770879015113
101.6266902909994,0.06220978533554433,0.07240996114919833
101.6316902909994,0.061015409809748525,0.07122994592272135
101.6366902909994,0.059819954877751526,0.07004784983476348
101.64169029099939,0.058623510590090286,0.06886373482561477
101.64669029099939,0.09894934844188097,0.06767774361412773
101.65169029099938,0.05622814878528913,0.06648994964438829
101.65669029099938,0.08140069322791726,0.06530055086644031
101.66169029099937,0.053830302359649536,0.06410958279521252
101.66669029099937,0.052630745365718046,0.06291722754648496
101.67169029099936,0.05143092438259597,0.061723578613194066
101.67669029099936,0.0502309600925314,0.060528762442669116
101.68169029099936,0.050969028745780666,0.05933288823796036
101.68669029099935,0.05216891563072485,0.0581360589194903
101.69169029099935,0.053368595065917526,0.19957462504625748
101.69669029099934,0.05456793195072862,0.05574012935723011
101.70169029099934,0.05576680380316312,0.05454123008707816
101.70669029099933,0.05696510466544335,0.053341884729143536
101.71169029099933,0.05816272587910514,0.052142209967401834
101.71669029099932,0.0593595001355926,0.0509423131125489
101.72169029099932,0.060555344814841684,0.05034946898377835
101.72669029099931,0.06175017355181249,0.5951288394642338
101.73169029099931,0.0629437993051891,0.052657455930048544
101.7366902909993,0.06413612103981356,0.05385700529385392
101.7416902909993,0.06532701716011884,0.0550561646353664
101.7466902909993,0.06651642571591591,0.056254832887379994
101.75169029099929,0.06770417197790136,0.06217970605736171
101.75669029099929,0.0688901369470788,0.058650164886497096
101.76169029099928,0.07007418049646126,0.05984657560918903
101.76669029099928,0.07125626083935732,0.0610420227529542
101.77169029099927,0.07243620786217278,0.0622363621902791
101.77669029099927,0.07361391313228297,0.06342947955259716
101.78169029099926,0.0747892263238007,0.06462123622950235
101.78669029099926,0.07596209180676128,0.06581154882053256
101.79169029099926,0.07713235037276468,0.06700027395284987
101.79669029099925,0.07829990261445989,0.0681873033644457
101.80169029099925,0.09737411824460607,0.06937251993631702
101.80669029099924,0.5466343470527736,0.0705557512424409
101.81169029099924,0.08178511908459117,0.07173700995640815
101.81669029099923,0.08294062127148825,0.07291603221612608
101.82169029099923,0.22492854546640073,0.07409264106009623
101.82669029099922,0.08524165107584925,0.07526709867057471
101.83169029099922,0.08638697327641465,0.07643892632149447
101.83669029099921,0.0875286649857537,0.07760811655816768
101.84169029099921,0.08866657322346658,0.07877452366194806
101.8466902909992,0.08980060201441181,0.0799380436929552
101.8516902909992,0.09093063146935343,0.08109855496968268
101.8566902909992,0.0920566460054353,0.08225601589140373
101.86169029099919,0.09317837452913179,0.08341018957583532
101.86669029099919,0.0942958777662258,0.08456109404786444
101.87169029099918,0.09540882786925968,0.08570844597704817
101.87669029099918,0.0965173774314816,0.08685233734833131
101.88169029099917,0.6694570286472502,0.08799247285971577
101.88669029099917,0.09872021568269933,0.08912879604699202
101.89169029099916,0.09981442837074597,0.09026125015345657
101.89669029099916,0.10090364265699585,0.09138966462585857
101.90169029099916,0.10198770124858597,0.09251388670887445
101.90669029099915,0.10306669139450957,0.09363396401723485
101.91169029099915,0.10414024593875332,0.09474957197827673
101.91669029099914,0.10520844159792896,0.09586075024265697
101.92169029099914,0.10627116152281339,0.09696738013492984
101.92669029099913,0.264073326804002,0.09806929041294182
101.93169029099913,0.10837958761798468,0.09916641785781818
101.93669029099912,0.109425053912997,0.10025858106682735
101.94169029099912,0.1104646056151638,0.10134574201433384
101.94669029099911,0.11149805150213996,0.10242771788304242
101.95169029099911,0.11252533800062338,0.10350444243724738
101.9566902909991,0.12162242614771919,0.10457594892441131
101.9616902909991,0.1145612797147901,0.10564192893781067
101.9666902909991,0.11556938470554341,0.10670217871586885
101.97169029099909,0.11657124302075542,0.10775702648312475
101.97669029099909,0.6192991919833157,0.10880596752167795
101.98169029099908,0.11855457306042955,0.10984901661067423
101.98669029099908,0.11953608999178682,0.1108861613334316
101.99169029099907,0.12051055521046734,0.11191713156529486
101.99669029099907,0.1214779705969858,0.11294191105589135
102.00169029099906,0.12243832418469165,0.11396047208178119
102.00669029099906,0.5626275459732009,0.11497260041569587
102.01169029099906,0.1243371084508323,0.5573181105194945
102.01669029099905,0.12527537916787188,0.11697723172172635
102.02169029099905,0.12620612920212015,0.11796955154429473
102.02669029099904,0.12712922544521454,0.11895504473100739
102.03169029099904,0.5118008878748802,0.11993373341482966
102.03669029099903,0.12895230663178897,0.12090535310231527
102.04169029099903,0.12985207442377195,0.1218699423667215
102.04669029099902,0.1307437622272537,0.455762709383649
102.05169029099902,0.13162742203066005,0.12377733527933804
102.05669029099901,0.13250299738548155,0.12472010438274839
102.06169029099901,0.13337018223669617,0.12565527450219494
102.066690290999,0.13422911437252724,0.12658295552085422
102.071690290999,0.13507963485713761,0.12750298854010486
102.076690290999,0.13592160750350138,0.128415234982147
102.08169029099899,0.1367549964230554,0.12931964755935396
102.08669029099899,0.13757968492026101,0.13021610533299707
102.09169029099898,0.13839565936043505,0.13110458169111483
102.09669029099898,0.13920276989822816,0.1319849252726327
102.10169029099897,0.1400010179168838,0.7834192283078943
102.10669029099897,0.14079022364584515,0.13372099727512943
102.11169029099896,0.1415703622571513,0.13457650995949197
102.11669029099896,0.14234126138476044,0.25437252388289633
102.12169029099896,0.14310298601203117,0.13626198028224812
102.12669029099895,0.14385544479602008,0.13709188684061144
102.13169029099895,0.14459851090791379,0.13791307769546807
102.13669029099894,0.14533208010204451,0.1387254428343767
102.14169029099894,0.14605606359546713,0.1395288864844084
102.14669029099893,0.1467704980360717,0.14032342987758448
102.15169029099893,0.14747525609193343,0.1411089415450925
102.15669029099892,0.14817027417958667,0.14188534939136027
102.16169029099892,0.14885548855922326,0.14265258120314608
102.16669029099891,0.1495308346262695,0.14341056398799604
102.17169029099891,0.15019615774991316,0.14415914015325926
102.1766902909989,0.1508515248281491,0.14489836014455887
102.1816902909989,0.15149669501713908,0.14562798509395677
102.1866902909989,0.1521318655254315,0.14634818855067008
102.19169029099889,0.15275666332927362,0.1470586066842538
102.19669029099889,0.2119404582439794,0.14775945640847976
102.20169029099888,0.15397559041788972,0.14845046289128502
102.20669029099888,0.15456945484236695,0.14913162676514785
102.21169029099887,0.1551528847690558,0.14980289874900163
102.21669029099887,0.5595770725251127,0.15046414238264147
102.22169029099886,0.15628816280967558,0.15111545608383614
102.22669029099886,0.15683991550881987,0.15175662747649865
102.23169029099886,0.1573809233849621,0.169147197115803
102.23669029099885,0.15791110760471483,0.1530081826610656
102.24169029099885,0.15843069151081898,0.20177526659149364
102.24669029099884,0.15893923824259754,0.15421863262994948
102.25169029099884,0.15943701591564294,0.15480828143587427
102.25669029099883,0.15992387175229578,0.1553874704197414
102.26169029099883,0.17165330497589368,0.15595613032059916
102.26669029099882,0.16086447169815793,0.156514091974302
102.27169029099882,0.16131814170599607,0.5681600041612794
102.27669029099881,0.1617606730615893,0.15759805707379712
102.28169029099881,0.16219202648551628,0.15812392157643215
102.2866902909988,0.1626122579263997,0.1586390674165648
102.2916902909988,0.2992693800303506,0.15914322841901216
102.2966902909988,0.16341870448003176,0.15963653195812358
102.30169029099879,0.16380504406981125,0.16011894902888238
102.30669029099879,0.1641798318372857,0.16059018841538172
102.31169029099878,0.16454330185290775,0.16105046578262383
102.31669029099878,0.16489534180456175,0.1614996616669861
102.32169029099877,0.1652358547873571,0.5264936859586734
102.32669029099877,0.1655648513190912,0.16236449405101894
102.33169029099876,0.16588242358687008,0.16536424271758732
102.33669029099876,0.16618827302703248,0.16318451518380497
102.34169029099876,0.16648245893371214,0.1635774592566883
102.34669029099875,0.27514263911900066,0.1639589447863764
102.35169029099875,0.1670358839223511,0.16432926131041078
102.35669029099874,0.16729514405829593,0.1646881188714207
102.36169029099874,0.16754255629632142,0.16503539185567237
102.36669029099873,0.16777812803944453,0.16537107669110276
102.37169029099873,0.1680022726094257,0.16569556796135418
102.37669029099872,0.1682143976842421,0.16600827484850605
102.38169029099872,0.16841461316503936,0.16630929427774943
102.38669029099871,0.16860315101231882,0.1665988436838316
102.39169029099871,0.16877956633962754,0.16687647525989038
102.3966902909987,0.1689446162386358,0.16714292361768615
102.4016902909987,0.16909747036340378,0.167397361209639
102.4066902909987,0.16923841136954318,0.4828476817965418
102.41169029099869,0.1693674077450166,0.16787096574988553
102.41669029099869,0.16948445082687877,0.1680900722556074
102.42169029099868,0.3634773597607096,0.1682973956377424
102.42669029099868,0.1696827504299218,0.16849290596030506
102.43169029099867,0.8022504749536401,0.16867650621947503
102.43669029099867,0.16983307110396964,0.16884823752582862
102.44169029099866,0.1698903420887085,0.1690081660550885
102.44669029099866,0.16993570633437083,0.16915627559382734
102.45169029099866,0.5659856632950574,0.16929228656225123
102.45669029099865,0.1699902843944387,0.169416569137805
102.46169029099865,0.1699994318730968,0.16952866619761786
102.46669029099864,0.16999663118471794,0.3534805625358452
102.47169029099864,0.1699819975576576,0.16971726075034738
102.47669029099863,0.1699552630996953,0.16979358567772831
102.48169029099863,0.16991648619211133,0.16985788432232443
102.48669029099862,0.16986576920890317,0.169910248706365
102.49169029099862,0.1698029360172368,0.25484760928857614
102.49669029099861,0.1697281904838464,0.1699788086306238
102.50169029099861,0.16964170543666374,0.16999536103703003
102.5066902909986,0.16954314570430518,0.1699998032572319
102.5116902909986,0.16943263350075868,0.16999224745797825
102.5166902909986,0.16931006687459665,0.16997258077239155
102.52169029099859,0.16917530669328262,0.1699406525118477
102.52669029099859,0.16902900818384015,0.16989711163271148
102.53169029099858,0.34714032367172937,0.169841426197795
102.53669029099858,0.37937773282431186,0.1697739189336625
102.54169029099857,0.16851859823576265,0.16969441175166144
102.54669029099857,0.16832482915221955,0.1696029922717369
102.55169029099856,0.4705057592942278,0.16949925950853945
102.55669029099856,0.16790147944604678,0.16938394448882557
102.56169029099856,0.16767228841604165,0.16925668942460517
102.56669029099855,0.1674313326953351,0.16911751147242257
102.57169029099855,0.1671784466968397,0.1689662320093155
102.57669029099854,0.16691382642706676,0.1688030391084788
102.58169029099854,0.1666376123139886,0.7106573669644461
102.58669029099853,0.1663497573224768,0.16844125139238855
102.59169029099853,0.16605025630220757,0.16824258247011273
102.59669029099852,0.1657390874417248,0.16803202530509742
102.60169029099852,0.16541636876971108,0.16780968946051186
102.60669029099851,0.16508210825387376,0.16757557243528878
102.61169029099851,0.16473624947736007,0.16732960573663744
102.6166902909985,0.4671469151870788,0.1670720616075848
102.6216902909985,0.16401038960283545,0.6534257784404205
102.6266902909985,0.16363014548735383,0.16652158536940354
102.63169029099849,0.1632389859727187,0.16622923023561825
102.63669029099849,0.1628357305179966,0.16592445952527674
102.64169029099848,0.667130189346474,0.16560901152878077
102.64669029099848,0.1619967894489558,0.16528158909141302
102.65169029099847,0.1615603016569492,0.48549584567982546
102.65669029099847,0.16111279317974167,0.16459234300181783
102.66169029099846,0.16065398915250026,0.16423039342162363
102.66669029099846,0.16018401889714817,0.16385691651582543
102.67169029099846,0.15970327343119436,0.16347230513035696
102.67669029099845,0.15921151837773453,0.16307630607266413
102.68169029099845,0.1587088406721963,0.1626689979209659
102.68669029099844,0.15819513107021227,0.1622502559248564
102.69169029099844,0.7675916552589728,0.16182052726373305
102.69669029099843,0.15713559208525937,0.1613794368009511
102.70169029099843,0.15658975825866292,0.16092733247144494
102.70669029099842,0.15603312600201813,0.1604639902683938
102.71169029099842,0.15546600203389038,0.15998971787648386
102.71669029099841,0.15488823988591913,0.15950435097334942
102.72169029099841,0.15429998052924207,0.15900802477983808
102.7266902909984,0.15370152856716363,0.15850104598739811
102.7316902909984,0.1530923423886665,0.3576274356206664
102.7366902909984,0.16377197006039848,0.15745421619801997
102.74169029099839,0.1518436088737414,0.1569146029350526
102.74669029099839,0.15120376284824627,0.1563642423958898
102.75169029099838,0.47560234070892543,0.15580346781731896
102.75669029099838,0.14989398098718448,0.15523188466144316
102.76169029099837,0.14922404234572959,0.15464986013285006
102.76669029099837,0.2665159560307429,0.15405738135994215
102.77169029099836,0.1478545007931947,0.15345451198156213
102.77669029099836,0.14715505054619502,0.15284132464419575
102.78169029099836,0.14644608803166612,0.15221806862481368
102.78669029099835,0.14572701146015984,0.15158409316066623
102.79169029099835,0.14499863700848273,0.15094025063633526
102.79669029099834,0.5224362368117605,0.1502863345606864
102.80169029099834,0.1435134955380599,0.14962238446769582
102.80669029099833,0.14275691653339762,0.14894853484028744
102.81169029099833,0.14199096725220578,0.1482646895593583
102.81669029099832,0.14121586267326328,0.1475710647070215
102.82169029099832,0.14043153630421804,0.1468675755101037
102.82669029099831,0.13963825116652698,0.1461544899136667
102.83169029099831,0.13883603535053202,0.14543182455198375
102.8366902909983,0.1380248867202687,0.1446995632520289
102.8416902909983,0.13720487723080801,0.14395776913343944
102.8466902909983,0.13637610415818635,0.14320653257078111
102.85169029099829,0.13553887314998206,0.3242348326285011
102.85669029099829,0.13469304296403825,0.1416765125872058
102.86169029099828,0.1338387087892393,0.14089765081922415
102.86669029099828,0.2854780246009848,0.14010960751156787
102.87169029099827,0.13210479624067625,0.13931254231907153
102.87669029099827,0.13122560260616487,0.13850668370729285
102.88169029099826,0.13033827592254568,0.13769196312983104
102.88669029099826,0.1294428781504524,0.1368684327339303
102.89169029099826,0.12853956133386116,0.41184994421028986
102.89669029099825,0.12762840523322627,0.13519546603939064
102.90169029099825,0.12670946864676425,0.13434615014843976
102.90669029099824,0.1257828317368072,0.1334883673580062
102.91169029099824,0.12484863499215469,0.2509008644662346
102.91669029099823,0.12390695853701941,0.2697715103874747
102.92169029099823,0.1229578805125981,0.13086533351382773
102.92669029099822,0.7342447850834364,0.12997471514458672
102.93169029099822,0.12103796750382616,0.12907609234059256
102.93669029099821,0.12006729637030229,0.12816955353067133
102.94169029099821,0.11908953355465622,0.12725510279239582
102.9466902909982,0.11810497704250415,0.1263330552962709
102.9516902909982,0.11711362429416859,0.509039491487828
102.9566902909982,0.11611545273967873,0.521197461284598
102.96169029099819,0.11511075766096643,0.12352139180900855
102.96669029099819,0.11409953627567447,0.12256934937810415
102.97169029099818,0.11308189502475964,0.12161003885518062
102.97669029099818,0.11205786107979325,0.12064347113443019
102.98169029099817,0.11102775761934897,0.11966999412087641
102.98669029099817,0.10999150844798787,0.11868950132390768
102.99169029099816,0.10894923691069615,0.11770211299630809
102.99669029099816,0.1790618722488098,0.11670798309938453
103.00169029099816,0.1068471380695074,0.11570715285642057
103.00669029099815,0.10578751440348494,0.11469977310870912
103.01169029099815,0.10472231561723654,0.11368592763882529
103.01669029099814,0.10365162285868926,0.11266568827968136
103.02169029099814,0.10257558112868255,0.11163920124219269
103.02669029099813,0.10149427044079944,0.11060653693115458
103.03169029099813,0.10040780020564365,0.10956779993151503
103.03669029099812,0.09931629201660694,0.10852310933617394
103.04169029099812,0.09821985653762817,0.1074725714500671
103.04669029099811,0.09711860687933098,0.10641629554268718
103.05169029099811,0.09601265375174486,0.25222018526630985
103.0566902909981,0.09490208816412321,0.36042861799668735
103.0616902909981,0.0937870851851867,0.10321411072672307
103.0666902909981,0.09266762386240956,0.10213587167370908
103.07169029099809,0.09154392114300058,0.10105244977000279
103.07669029099809,0.0904160612310568,0.09996391910336372
103.08169029099808,0.08928417695759615,0.09887041326316216
103.08669029099808,0.08814836121270958,0.09777201670646814
103.09169029099807,0.08700872498151609,0.09666883596858572
103.09669029099807,0.08586538109926198,0.0955609796124845
103.10169029099806,0.08471845731261844,0.23909171547131133
103.10669029099806,0.08356810360791117,0.09333178065289874
103.11169029099806,0.08241435949526092,0.09221060975897473
103.11669029099805,0.333232967302168,0.09108515222103317
103.12169029099805,0.08009720836304336,0.08995564581649113
103.12669029099804,0.078934113507204,0.0888221847609792
103.13169029099804,0.07776805661532243,0.08768474931192294
103.13669029099803,0.25690117288648506,0.08654361825864082
103.14169029099803,0.15654033691483554,0.0853987908712327
103.14669029099802,0.07425380802711547,0.08425044387689601
103.15169029099802,0.07307738686338756,0.08309867572112506
103.15669029099801,0.07189865906417363,0.08194359954216666
103.16169029099801,0.0707177089787452,0.08078528129043333
103.166690290998,0.06953473794423574,0.07962395972195835
103.171690290998,0.06834978250317912,0.07845962945802012
103.176690290998,0.06716298896304428,0.07729244769502777
103.18169029099799,0.06597448836530086,0.07612255117258336
103.18669029099799,0.0647844156985662,0.07495008484280995
103.19169029099798,0.06359281767603815,0.07377504452347013
103.19669029099798,0.0623998869940574,0.07259767182325294
103.20169029099797,0.061205697169236156,0.07141800374087477
103.20669029099797,0.06001042536949368,0.0702362682407484
103.21169029099796,0.3975662446796212,0.0690524398257566
103.21669029099796,0.6985704103414918,0.06786675403613442
103.22169029099796,0.056419003828933376,0.06667924028223103
103.22669029099795,0.05522042433595643,0.0654900804563928
103.23169029099795,0.054021324065563675,0.06429937842992436
103.23669029099794,0.05282181806544744,0.06310723680446848
103.24169029099794,0.05162202770293785,0.22614707782878446
103.24669029099793,0.0504220774265177,0.0607191195634026
103.25169029099793,0.050777915470820466,0.059523415916794435
103.25669029099792,0.05197783077720073,0.05832674408272057
103.26169029099792,0.1625754740804934,0.05712923030839775
103.26669029099791,0.05437694571186,0.05593102025060802
103.27169029099791,0.10935817804143447,0.054732211364401526
103.2766902909979,0.05677431157102669,0.16240793592021247
103.2816902909979,0.05797202476689891,0.052333290546290476
103.2866902909979,0.05916896848514973,0.051133426032139766
103.29169029099789,0.060364975196636216,0.0502077968932054
103.29669029099789,0.061559959523591806,0.05126653214656195
103.30169029099788,0.06275377902307208,0.05246638100557368
103.30669029099788,0.0639463303777009,0.05366598504836442
103.31169029099787,0.06513745292686737,0.05486521235203874
103.31669029099787,0.06632710873146196,0.056063967701874926
103.32169029099786,0.1856352900174691,0.057262103364726154
103.32669029099786,0.0687013479964536,0.058459519349229654
103.33169029099786,0.06988572235955658,0.05965608577209292
103.33669029099785,0.07106813977540458,0.06085170225419068
103.34169029099785,0.07224843875597246,0.06204622868578751
103.34669029099784,0.07342647343491934,0.252199634601476
103.35169029099784,0.07460220005379274,0.06443152397959152
103.35669029099783,0.07577548323963584,0.06562208659997146
103.36169029099783,0.16455148683990117,0.06681106579996582
103.36669029099782,0.07811410255517026,0.06799834642056603
103.37169029099782,0.07927929903785388,0.06918386458350778
103.37669029099781,0.13007669901159805,0.07036744698636661
103.38169029099781,0.08160072311685715,0.07154898233069543
103.3866902909978,0.08275681612262818,0.07272841128902807
103.3916902909978,0.08390953157531762,0.07390549665487552
103.3966902909978,0.08505897482562902,0.07508027537237369
103.40169029099779,0.38551177229333855,0.0762524287212661
103.40669029099779,0.08734708881633471,0.077422092317458
103.41169029099778,0.25750145790316825,0.07858892054205963
103.41669029099778,0.08962017455484445,0.07975287311334596
103.42169029099777,0.09075096628412137,0.08091395997119338
103.42669029099777,0.09187755803799802,0.08207186126261455
103.43169029099776,0.09300000143519145,0.08322658519072154
103.43669029099776,0.5190790621105787,0.08437797049939802
103.44169029099776,0.09523191054047747,0.17163203138927813
103.44669029099775,0.09634111410368416,0.08667038427741819
103.45169029099775,0.6411480882987469,0.08781113616363612
103.45669029099774,0.09854549389029539,0.08894807198031932
103.46169029099774,0.09964048652304484,0.09008115414371068
103.46669029099773,0.10073043187118928,0.0912101608245322
103.47169029099773,0.10181538310010307,0.09233511033955015
103.47669029099772,0.10289510207797799,0.0934557847068448
103.48169029099772,0.10396966448924252,0.09457222313981967
103.48669029099771,0.10503873879601992,0.09568412948386848
103.49169029099771,0.10610229682765233,0.09679145702671926
103.4966902909977,0.10716019463935056,0.09789406355289548
103.5016902909977,0.10821249688616372,0.09899198155657472
103.5066902909977,0.4541459572039717,0.10008495804329008
103.51169029099769,0.11029942344373603,0.10117291914159937
103.51669029099769,0.11133390035518492,0.1022557720255335
103.52169029099768,0.112362173060461,0.10333333883264205
103.52669029099768,0.11338429209926558,0.10440564283085886
103.53169029099767,0.11440004288529862,0.10547248070863934
103.53669029099767,0.11540926004623749,0.10653369039507278
103.54169029099766,0.11641208992306452,0.466075715742888
103.54669029099766,0.1174082618885776,0.10863929529307724
103.55169029099766,0.11839765989979484,0.10968331853583632
103.55669029099765,0.11938008704828754,0.3894232293953142
103.56169029099765,0.12035583560671585,0.11175335385899385
103.56669029099764,0.12132433752733653,0.11277908858688913
103.57169029099764,0.12228581043608441,0.1137986362440069
103.57669029099763,0.6507974480746334,0.11481177067137195
103.58169029099763,0.12418680975268671,0.11581834444630147
103.58669029099762,0.12512636188760512,0.11681849420030252
103.59169029099762,0.1260583612880858,0.6046521359757843
103.59669029099761,0.12698271168200936,0.7466378458586633
103.60169029099761,0.12789937699282722,0.1197782843258873
103.6066902909976,0.12880832647356938,0.12075111785814917
103.6116902909976,0.12970928832126286,0.12171678048293844
103.6166902909976,0.13060230294650682,0.1226752927202086
103.62169029099759,0.1314872804376958,0.12362655828840032
103.62669029099759,0.13236394307697288,0.12457031085600283
103.63169029099758,0.13323257860707802,0.12550679575156265
103.63669029099758,0.13409288157034602,0.12643572168071893
103.64169029099757,0.13494458786481708,0.5261371375799364
103.64669029099757,0.1357880746223558,0.12827046026220484
103.65169029099756,0.13662283733703967,0.12917612757712585
103.65669029099756,0.45428209403538305,0.13007379787839288
103.66169029099756,0.13826628858047618,0.8058197808865043
103.66669029099755,0.13907470750807643,0.13184516002024402
103.67169029099755,0.13987435417944968,0.13271864447767168
103.67669029099754,0.23766930099777672,0.1335839288738258
103.68169029099754,0.14144656137815628,0.13444067006658905
103.68669029099753,0.14221910960977985,0.13528917292524023
103.69169029099753,0.14298222392131715,0.1361289508172523
103.69669029099752,0.14373611347061843,0.1369601837446429
103.70169029099752,0.14448072576942275,0.13778281010882162
103.70669029099751,0.145215793681285,0.13859656881204285
103.71169029099751,0.14594144542854545,0.1394015660257991
103.7166902909975,0.1466573518201753,0.1401974822169588
103.7216902909975,0.3866215601063473,0.14098442430200414
103.7266902909975,0.14806020968864245,0.33617433509829026
103.73169029099749,0.14874703797706118,0.1425310250672289
103.73669029099749,0.14942388331993922,0.14329041381825014
103.74169029099748,0.15009081095763788,0.14404049662171134
103.74669029099748,0.3475797723581249,0.14478094935393815
103.75169029099747,0.15139463516663207,0.14551243414179935
103.75669029099747,0.1520313678867943,0.23548347974030862
103.76169029099746,0.15265788653924825,0.14694615264289965
103.76669029099746,0.15327415406893086,0.23940006668533348
103.77169029099746,0.1538799107209278,0.1483409374484319
103.77669029099745,0.15447536770397022,0.40603301694731253
103.78169029099745,0.1550606592358032,0.14969664737598912
103.78669029099744,0.15563517434514454,0.15035945884153756
103.79169029099744,0.3977640983598347,0.1510123741866208
103.79669029099743,0.15675272876301416,0.15165516638048732
103.80169029099743,0.15729517621514164,0.15228747578430823
103.80669029099742,0.1578272847121041,0.1529099286134572
103.81169029099742,0.1583485994479894,0.37119440797678627
103.81669029099741,0.15885900264892414,0.15412380631141262
103.82169029099741,0.15935855385574607,0.15471515262653324
103.8266902909974,0.15984702718752006,0.15529589142087533
103.8316902909974,0.16032466460466416,0.23197080000320458
103.8366902909974,0.16079109634782215,0.15642584215677366
103.84169029099739,0.1612466732017056,0.15697501387315424
103.84669029099739,0.16169085812375966,0.15751323105445655
103.85169029099738,0.4486235810883136,0.15804102885114507
103.85669029099738,0.29719920089462726,0.15855774120081162
103.86169029099737,0.16295682351347235,0.1590637396348854
103.86669029099737,0.1633562096894295,0.2457111116865155
103.87169029099736,0.1637441866551,0.16004276772553286
103.87669029099736,0.1641208762289967,0.1605158480216272
103.88169029099735,0.16448621049069675,0.16097793177696484
103.88669029099735,0.1648401532966263,0.16142897330529127
103.89169029099735,0.16518238797446821,0.1618686544635916
103.89669029099734,0.20482996435116063,0.1622973169410366
103.90169029099734,0.16583252178397007,0.16271465813018476
103.90669029099733,0.16614022550720067,0.1631207694988292
103.91169029099733,0.16643617737018307,0.16351543444204775
103.91669029099732,0.1667207754490061,0.16389903040203382
103.92169029099732,0.16699343824344173,0.16427097964739493
103.92669029099731,0.16725449640759277,0.16463159421761314
103.93169029099731,0.16750394403317298,0.16498085807826934
103.9366902909973,0.16774147221921795,0.16531845843478288
103.9416902909973,0.16796739049513287,0.1656446878301634
103.9466902909973,0.7603044611106806,0.1659591465562596
103.95169029099729,0.168383427455694,0.1662620412649375
103.95669029099729,0.1685738938606735,0.16655348559820976
103.96169029099728,0.16875250678846002,0.16683327857351643
103.96669029099728,0.931114012073337,0.19799327192574465
103.97169029099727,0.4126613671097351,0.16735743111493456
103.97669029099727,0.16921672797133233,0.16760215603686948
103.98169029099726,0.1693475224779191,0.16783484068068746
103.98669029099726,0.16946662232363194,0.1680559788528464
103.99169029099725,0.441178034436602,0.16826513814344315
103.99669029099725,0.1696685211435014,0.16846237245234366
104.00169029099725,0.16975187463920774,0.16864815592759605
104.00669029099724,0.16982299017129784,0.16882181439943325
104.01169029099724,0.16988211385085056,0.16898358118410248
104.01669029099723,0.16992912807338428,0.1691333290932868
104.02169029099723,0.16996426190468586,0.16927127531197314
104.02669029099722,0.169987420690621,0.1693973156189859
104.03169029099722,0.16999861562797092,0.30089697456906556
104.03669029099721,0.1699979893321683,0.1696138131376422
104.04169029099721,0.16998515729502672,0.16970400885733283
104.0466902909972,0.1699603722164736,0.16978227957362702
104.0516902909972,0.16992343868884593,0.1698484198219148
104.0566902909972,0.16987468525969385,0.5733071875385095
104.06169029099719,0.7792204344589168,0.16994512729336583
104.06669029099719,0.16974113525126663,0.1699753410977573
104.07169029099718,0.16965633066358457,0.16999357817865765
104.07669029099718,0.1695596846326906,0.16999994047056657
104.08169029099717,0.1694509257658041,0.1699941453154836
104.08669029099717,0.16933017855868612,0.16997630710316244
104.09169029099716,0.16919789324688317,0.16994686844803378
104.09669029099716,0.1690531196177771,0.16990486297549837
104.10169029099715,0.16889697900990308,0.16985140912867527
104.10669029099715,0.20099058555344473,0.16978578230034833
104.11169029099715,0.16854855713616648,0.1697080606550235
104.11669029099714,0.16835645959154547,0.16961832999000576
104.12169029099714,0.16815281356290207,0.570081905243831
104.12669029099713,0.1679370671264519,0.16940328550298844
104.13169029099713,0.1677096435636005,0.1692778208728632
104.13669029099712,0.16747044017997875,0.1691404195072768
104.14169029099712,0.1672193516154071,0.16899096387404033
104.14669029099711,0.16695669995879622,0.16882977031349655
104.15169029099711,0.16668234275334434,0.1686566837513087
104.1566902909971,0.16639633876931662,0.1684717533947722
104.1616902909971,0.16609867003264264,0.7849037821676216
104.1666902909971,0.16578947754589893,0.16806640764202618
104.17169029099709,0.1654685561136918,0.16784590539176764
104.17669029099709,0.16513609283750824,0.1676136235724777
104.18169029099708,0.3038893829944058,0.16736965768783654
104.18669029099708,0.1644367582910005,0.16711390070990842
104.19169029099707,0.16406998190561828,0.16684653539939956
104.19669029099707,0.16369163605148557,0.1665673190112221
104.20169029099706,0.1633019063170866,0.1662764305906189
104.20669029099706,0.16290108172170148,0.3928661179272076
104.21169029099705,0.7897296806928827,0.16566016603577657
104.21669029099705,0.16206521191241996,0.1653344441060695
104.22169029099705,0.16163065680536323,0.1649974885685839
104.22669029099704,0.1611847248200345,0.16464881309382348
104.23169029099704,0.16072762822527842,0.1642886250102794
104.23669029099703,0.1602595782462251,0.16391713117881815
104.24169029099703,0.15978071948874287,0.16353447026916954
104.24669029099702,0.15929042430359946,0.16313998183415326
104.25169029099702,0.15878948526228548,0.16273447447653436
104.25669029099701,0.1582777766203945,0.1623178072229193
104.26169029099701,0.1577549968577137,0.16188965581295206
104.266690290997,0.15722158325023805,0.16145046253955347
104.271690290997,0.4716422268168157,0.16099996666980035
104.276690290997,0.15612255784687354,0.1605385965067659
104.28169029099699,0.15555681678634783,0.16006576538694584
104.28669029099699,0.1549809631396048,0.15958238962291746
104.29169029099698,0.15439436109267712,0.15908779446396326
104.29669029099698,0.15379756494753943,0.1585825470136012
104.30169029099697,0.1531901007052079,0.15806613970328026
104.30669029099697,0.15257247275822436,0.1575390883720732
104.31169029099696,0.17408473167758767,0.1570013023388715
104.31669029099696,0.15130649607358362,0.15645276557367147
104.32169029099695,0.1506581629826811,0.1558934860047507
104.32669029099695,0.14999980462702375,0.5588813328916307
104.33169029099695,0.14933155273203233,0.15474341292110758
104.33669029099694,0.1486533308924897,0.1541526532355175
104.34169029099694,0.14796522043133092,0.15355145374622156
104.34669029099693,0.14726723227459962,0.35764065679312285
104.35169029099693,0.14655949503374338,0.1523178547762775
104.35669029099692,0.31419404161787107,0.1516859534695799
104.36169029099692,0.14511543146075398,0.15104363110232497
104.36669029099691,0.1443791009754005,0.15039133608430583
104.37169029099691,0.14363323893137955,0.14972890236425743
104.3766902909969,0.14287808336509297,0.1490565700850071
104.3816902909969,0.1421136558530083,0.14837434917983408
104.3866902909969,0.14133983473141673,0.14768209610169372
104.39169029099689,0.14055708349811097,0.14698029271012833
104.39669029099689,0.13976526228598232,0.14626877623117832
104.40169029099688,0.1389643736811098,0.1455475354338884
104.40669029099688,0.1381545344214708,0.14481668144751048
104.41169029099687,0.1373360897163117,0.14407657175247465
104.41669029099687,0.13650870989476577,0.14332683739594512
104.42169029099686,0.13567262002742062,0.14256770611883252
104.42669029099686,0.13482831242879006,0.14179969587753216
104.43169029099685,0.13397521458381698,0.1410221731687893
104.43669029099685,0.1331139435818978,0.14023579146827553
104.44169029099685,0.13224413999987428,0.1394401461077856
104.44669029099684,0.1313662525690423,0.13863570951685844
104.45169029099684,0.13048016929788903,0.13782234489371206
104.45669029099683,0.1295860783256146,0.13700024204519612
104.46169029099683,0.12868404514535087,0.1361694572537371
104.46669029099682,0.1277740510316543,0.13532995415660284
104.47169029099682,0.12685632818480128,0.27570172808398385
104.47669029099681,0.17224760372902476,0.1336255760190958
104.48169029099681,0.12499782886131569,0.1327606482973666
104.4866902909968,0.12405746115880623,0.16288584434849973
104.4916902909968,0.12310946756842296,0.13100637208135285
104.4966902909968,0.12215435735034437,0.13011713264576477
104.50169029099679,0.12119171497575955,0.12921952956386096
104.50669029099679,0.1202223249804019,0.12831441786923825
104.51169029099678,0.1192456707857172,0.12740120505818903
104.51669029099678,0.11826219405476143,0.12648036604152604
104.52169029099677,0.1172719783164004,0.12555197698927847
104.52669029099677,0.11627484533233548,0.12461581937400132
104.53169029099676,0.11527120042256782,0.12367233018101888
104.53669029099676,0.11426102031165844,0.12272146476717183
104.54169029099675,0.11324436146704328,0.12176326765048594
104.54669029099675,0.8616408254779936,0.12079798038135438
104.55169029099675,0.11119223006324072,0.11982550582014503
104.55669029099674,0.11015692248300592,0.11884608920675689
104.56169029099674,0.10911561834980082,0.11785980988025618
104.56669029099673,0.10806841156097363,0.11686675488833974
104.57169029099673,0.10701536539848688,0.11586697576944134
104.57669029099672,0.1059566589879694,0.11486065767908397
104.58169029099672,0.10489234512279179,0.11384784002812127
104.58669029099671,0.10382247292704093,0.29877261035145897
104.59169029099671,0.10274723728382619,0.11180301277040695
104.5966902909967,0.10166685403974636,0.11077143737545103
104.6016902909967,0.10058113624844851,0.10973358747337134
104.6066902909967,0.09949044466523906,0.10868986340528966
104.61169029099669,0.09839479803599493,0.10764026327666952
104.61669029099669,0.09729433081377512,0.10658492170782145
104.62169029099668,0.09618915983867636,0.10552395277383897
104.62669029099668,0.09507927348861236,0.10445731544924573
104.63169029099667,0.09396474044514025,0.10338506339878631
104.63669029099667,0.09284619438424889,0.10230793813747914
104.64169029099666,0.09172317385214004,0.10122535178114572
104.64669029099666,0.0905959886210245,0.10013765236947648
104.65169029099665,0.08946473874143165,0.09904493305028769
104.65669029099665,0.24952354494133233,0.09794727378364455
104.66169029099665,0.08719048707750707,0.09684485828341526
104.66669029099664,0.3222987337603492,0.09573771989024718
104.67169029099664,0.0849013737622934,0.09462606361378449
104.67669029099663,0.08375154175479378,0.09350993895736669
104.68169029099663,0.08259832697218754,0.09238945374779152
104.68669029099662,0.08144183648146815,0.09126470897752315
104.69169029099662,0.08028220273127074,0.09013583885203204
104.69669029099661,0.0791195086739516,0.0890029120682891
104.70169029099661,0.07795398436862337,0.08786619438813122
104.7066902909966,0.07678559643511783,0.08672559801773537
104.7116902909966,0.0756145662426617,0.08558137868205316
104.7166902909966,0.07444095468325536,0.08443357366168042
104.72169029099659,0.07326491332587333,0.08328234535530887
104.72669029099659,0.07208654237032168,0.08212778457654729
104.73169029099658,0.2674428632345048,0.0809700178764104
104.73669029099658,0.06972328800587131,0.07980913418711325
104.74169029099657,0.06853864124927084,0.07864527671024167
104.74669029099657,0.0673521413833771,0.503310143789292
104.75169029099656,0.06616390455024986,0.07630908432473388
104.75669029099656,0.06497404996977381,0.0751369793812429
104.76169029099655,0.06378267564226815,0.07396232153833082
104.76669029099655,0.15782162414654918,0.07278535784310677
104.77169029099655,0.06139599087823881,0.07160607332053244
104.77669029099654,0.06020086937499214,0.07042463302350403
104.78169029099654,0.059004716146761525,0.06924112635766483
104.78669029099653,0.05780766670654741,0.06805570343328264
104.79169029099653,0.05660984867534144,0.06686850378800527
104.79669029099652,0.16183811467393205,0.06567958190998505
104.80169029099652,0.054212329135978544,0.0644891142367843
104.80669029099651,0.05301287542218649,0.06329717469477736
104.81169029099651,0.0518131281698208,0.06210394202819884
104.8166902909965,0.050613193995295166,0.06090946619272725
104.8216902909965,0.05058679943778579,0.05971390916287312
104.8266902909965,0.05178673512928583,0.05851738651911616
104.83169029099649,0.05298648887195554,0.05732000198472097
104.83669029099649,0.05418594754863416,0.05612189530364681
104.84169029099648,0.05538499268789942,0.05492317913106112
104.84669029099648,0.05658348996794871,0.25919919593576957
104.85169029099647,0.057781331922043,0.05252437368665988
104.85669029099647,0.05897840178634641,0.06999977397321874
104.86169029099646,0.06017456381037185,0.050158705742792964
104.86669029099646,0.061369700006124905,0.05107542131346293
104.87169029099645,0.06256371564090947,0.05227529797884834
104.87669029099645,0.06375647635340848,0.053474947947715595
104.88169029099645,0.06494786331679338,0.054674251806513106
104.88669029099644,0.06613774695542456,0.055873085931990266
104.89169029099644,0.06732601997621916,0.05707133376137202
104.89669029099643,0.06851256310751937,0.05826887588399216
104.90169029099643,0.06969725098996905,0.059465589414090074
104.90669029099642,0.07087996532844401,0.4900057026479993
104.91169029099642,0.0720605770650419,0.15949247447035153
104.91669029099641,0.48252141004661586,0.06304956219267265
104.92169029099641,0.074415118015067,0.06424177913783793
104.9266902909964,0.07558877567180194,0.1598579351252094
104.9316902909964,0.0767598775798442,0.0666218082913458
104.9366902909964,0.07792830393877845,0.0678093904201448
104.94169029099639,0.07909392880467962,0.06899518591965796
104.94669029099639,0.0802566677543542,0.07017909743121843
104.95169029099638,0.08141631391601913,0.07136094592925397
104.95669029099638,0.0825728807820974,0.4867583664524643
104.96169029099637,0.08372621375355697,0.07371821700240447
104.96669029099637,0.08487611650734653,0.07489332179697329
104.97169029099636,0.08602254713878711,0.0760659479305419
104.97669029099636,0.08716540057040427,0.07723598581893834
104.98169029099635,0.0883044795547757,0.07840325748459799
104.98669029099635,0.0894398211614547,0.0795677579264481
104.99169029099635,0.09057115757674586,0.08072925607847634
104.99669029099634,0.21076115993335034,0.08188758245274949
105.00169029099634,0.09282133105620094,0.08304275111946138
105.00669029099633,0.09394036275607459,0.08419484084113285
105.01169029099633,0.09505480296695633,0.08534335839360378
105.01669029099632,0.09616476413909973,0.08648836264198023
105.02169029099632,0.09727003943075396,0.08762966304971537
105.02669029099631,0.09837067513730156,0.0887672700999548
105.03169029099631,0.09946637733466811,0.08990092306435274
105.0366902909963,0.10055709971303538,0.09103055855795666
105.0416902909963,0.10164299607750615,0.09215627758634902
105.0466902909963,0.10272358081185029,0.09327766144732925
105.05169029099629,0.10379889239856013,0.09439471683248027
105.05669029099629,0.10486885432487188,0.09550735780769314
105.06169029099628,0.10593330406785628,0.09661542714890099
105.06669029099628,0.10699214000134044,0.09771881781172734
105.07169029099627,0.4407763715020613,0.09881739982024589
105.07669029099627,0.10909265927052902,0.09991121568205298
105.08169029099626,0.1101340155702855,0.1009999047816713
105.08669029099626,0.11116936607779052,0.10208349981084126
105.09169029099625,0.11219887059799383,0.10316211758697186
105.09669029099625,0.11322190018027362,0.27856211995725705
105.10169029099625,0.11423864353466504,0.1053028925648622
105.10669029099624,0.11524902233699616,0.10636510440022749
105.11169029099624,0.11625281883137929,0.10742163015200872
105.11669029099623,0.11725007181096825,0.10847248460319725
105.12169029099623,0.11824034207892098,0.10951726742902897
105.12669029099622,0.11922423520811827,0.11055648838406851
105.13169029099622,0.12020090149959355,0.11158938789429443
105.13669029099621,0.12117055713420986,0.11261613643945029
105.14169029099621,0.6070572170094084,0.1136367332541814
105.1466902909962,0.1853550402984943,0.11465088528490215
105.1516902909962,0.12403656007485783,0.11565851225883468
105.1566902909962,0.12497726195333718,0.11665968321539781
105.16169029099619,0.12591040685814192,0.4137933503704641
105.16669029099619,0.12683605479254398,0.11864190640801289
105.17169029099618,0.1277537392861699,0.11962256286483436
105.17669029099618,0.12866407137535568,0.12059663577337176
105.18169029099617,0.1295662229897073,0.6022005168638549
105.18669029099617,0.13046062269329628,0.1225231268750567
105.19169029099616,0.13134686794447467,0.12347553650511725
105.19669029099616,0.13222498634711963,0.12442060569780591
105.20169029099615,0.1330948455645313,0.125358199554141
105.20669029099615,0.1339564939203087,0.1262883471083874
105.21169029099615,0.1348096289218003,0.12721075890810613
105.21669029099614,0.13565429054238554,0.12812545637732822
105.22169029099614,0.13649044540476865,0.12903239474847414
105.22669029099613,0.13731788228785446,0.12993136683142636
105.23169029099613,0.13813659392162528,0.13082235162540612
105.23669029099612,0.13894648786489402,0.13170525034905278
105.24169029099612,0.13974765001902315,0.13258012822221044
105.24669029099611,0.14053981385324005,0.13344672674707753
105.25169029099611,0.14132283679447583,0.13430490061333733
105.2566902909961,0.14209645385532402,0.13515439104809956
105.2616902909961,0.31702100164228686,0.135995774935828
105.2666902909961,0.14361677380118462,0.7063420661434396
105.27169029099609,0.14436280005430682,0.45607986128771205
105.27669029099609,0.1450994278889213,0.13846762094565668
105.28169029099608,0.14582633052380997,0.5905825019769431
105.28669029099608,0.14654381478588152,0.14007116991206972
105.29169029099607,0.14725157660530347,0.3594997150620425
105.29669029099607,0.14794986113830458,0.14163894843587113
105.30169029099606,0.14863829013675509,0.14240919039554828
105.30669029099606,0.14931667803998952,0.14317002535265305
105.31169029099605,0.14998521603364048,0.14392161995997987
105.31669029099605,0.18528800955040992,0.1446639310992295
105.32169029099605,0.1512923272905682,0.14539664950900955
105.32669029099604,0.15193058103860085,0.14611975916217146
105.33169029099604,0.7195357626653457,0.1468334533129095
105.33669029099603,0.15317662289796696,0.14753723730392126
105.34169029099603,0.15378423575179645,0.1482314165000073
105.34669029099602,0.1543814782382247,0.1489157802770553
105.35169029099602,0.15496819279895846,0.14959016739422076
105.35669029099601,0.1555443759302734,0.34831941315059334
105.36169029099601,0.1561102088658033,0.15090912624464276
105.366690290996,0.1566652674511065,0.1515534438337156
105.371690290996,0.15720955055461502,0.15218750212762813
105.376690290996,0.15774343248581346,0.49375002792505934
105.38169029099599,0.15826623168482595,0.15342521552976052
105.38669029099599,0.15877846585483227,0.15402869188031648
105.39169029099598,0.15927939093268725,0.15462135275586214
105.39669029099598,0.1597698324381978,0.15520397677961087
105.40169029099597,0.16024920339066312,0.1557759909034023
105.40669029099597,0.16071768553710825,0.15633755823150944
105.41169029099596,0.16117462856164622,0.15688804286851846
105.41669029099596,0.16162081574944312,0.15742818614986534
105.42169029099595,0.1620558727754411,0.15795761750754142
105.42669029099595,0.16247960515863885,0.158476138480459
105.43169029099595,0.16289215824124384,0.15898387813853843
105.43669029099594,0.1632933477110581,0.1594806476084116
105.44169029099594,0.16368322082558395,0.15996648152485593
105.44669029099593,0.1640618080046487,0.1604413985663658
105.45169029099593,0.16442891366005866,0.16090519858737304
105.45669029099592,0.16478453461560993,0.16135786752673112
105.46169029099592,0.1651287548188911,0.16179947606335138
105.46669029099591,0.16546138296635776,0.16222982775446096
105.47169029099591,0.165782530887213,0.37883825783924885
105.4766902909959,0.16609202240269222,0.16305687230414295
105.4816902909959,0.28643319114667254,0.1634532610955739
105.4866902909959,0.1666762827338902,0.16383875028652106
105.49169029099589,0.16695079109702138,0.68545443996526
105.49669029099589,0.16721384494671834,0.16457506588274248
105.50169029099588,0.36227895356550743,0.16492605328183424
105.50669029099588,0.16770450465717698,0.1652655348192243
105.51169029099587,0.16793226498842972,0.16559356910506118
105.51669029099587,0.16814812244629643,0.16590993658507036
105.52169029099586,0.16835219701990595,0.16621474433296932
105.52669029099586,0.16854403680352342,0.1665075378695945
105.53169029099585,0.16872472444241557,0.16678937075288433
105.53669029099585,0.16889329308259404,0.1670592824764012
105.54169029099585,0.16905010797522588,0.16731762192610983
105.54669029099584,0.16919481831473956,0.16756403312280369
105.55169029099584,0.16932759641713702,0.16779867528797854
105.55669029099583,0.16944838901392648,0.16802148539679304
105.56169029099583,0.16955728566910871,0.1682325415740099
105.56669029099582,0.653379413054711,0.16843196070453276
105.57169029099582,0.1697392452416984,0.16861920677240827
105.57669029099581,0.1698124315504239,0.1687949175796246
105.58169029099581,0.16987325713100512,0.16895837253326262
105.5866902909958,0.169922401221901,0.1691102350477638
105.5916902909958,0.1699595006043819,0.16925013449514165
105.5966902909958,0.1699845011315867,0.16937800656798405
105.60169029099579,0.1699977045673881,0.16949414120813974
105.60669029099579,0.1699989089807714,0.16959832736185887
105.61169029099578,0.16998793884632618,0.16969037966071515
105.61669029099578,0.16996511978737242,0.16977061246941966
105.62169029099577,0.16993021877884015,0.16983878299447114
105.62669029099577,0.1698833116906444,0.16989495659265957
105.63169029099576,0.16982429194604745,0.16993901624716048
105.63669029099576,0.16975344751641702,0.16997123978509504
105.64169029099575,0.16967074055042722,0.1699915793718785
105.64669029099575,0.16957568450958943,0.16999953668284482
105.65169029099575,0.16946905390777947,0.1699958783159058
105.65669029099574,0.1693504120627076,0.16998015592102547
105.66169029099574,0.16921960644900844,0.16995220551086557
105.66669029099573,0.5270061706631738,0.864262239744803
105.67169029099573,0.1689225208652622,0.16986060166224137
105.67669029099572,0.1687562851138725,0.16979697251234804
105.68169029099572,0.16857803418104894,0.3568550613077857
105.68669029099571,0.16838798581610973,0.16963356236554566
105.69169029099571,0.16818577417918623,0.16953361030630465
105.6966902909957,0.16797152102594884,0.532789823019581
105.7016902909957,0.69672662200244,0.1692985399901697
105.7066902909957,0.16750937642040767,0.16916315386556607
105.71169029099569,0.1672601617644539,0.16901559956932696
105.71669029099569,0.1669994079568858,0.1688563332903227
105.72169029099568,0.1667269162090413,0.16868514286524047
105.72669029099568,0.16644261098977137,0.16850194069889993
105.73169029099567,0.1661469110372143,0.16830714227711063
105.73669029099567,0.2499650789360735,0.1681003136655243
105.74169029099566,0.1655202261846611,0.16788159341119535
105.74669029099566,0.16518983792392253,0.1676514300531851
105.75169029099565,0.16484769835089372,0.16740926438341558
105.75669029099565,0.16449421955314963,0.16715550665234138
105.76169029099565,0.1641291860850465,0.16688992576187853
105.76669029099564,0.16375252307631358,0.5388891683743227
105.77169029099564,0.163364735835112,0.16632353777447922
105.77669029099563,0.16296570695148263,0.1660231068397378
105.78169029099563,0.1625552622162026,0.16571095123263646
105.78669029099562,0.1621333534963056,0.16538701001639017
105.79169029099562,0.16170053579057536,0.16505184322068653
105.79669029099561,0.16125644095313527,0.1647050609985869
105.80169029099561,0.16080109048362634,0.1643466741441316
105.8066902909956,0.16033485893432792,0.16397705795804562
105.8116902909956,0.15985766900674647,0.16359612188383313
105.8166902909956,0.15936929309916648,0.1632036192206272
105.82169029099559,0.15887014919392237,0.16279997111815553
105.82669029099559,0.1583600296596773,0.162384951330469
105.83169029099558,0.15783888816752695,0.16195850004128381
105.83669029099558,0.19901151225567942,0.16152113802640136
105.84169029099557,0.15676481100271494,0.1610725772549923
105.84669029099557,0.15621159553749703,0.160612792190204
105.85169029099556,0.155647845822352,0.16014203635623578
105.85669029099556,0.1550734283833444,0.1596601589649242
105.86169029099555,0.1544885684694161,0.15916738318849943
105.86669029099555,0.15389312568403654,0.15866355051154052
105.87169029099555,0.15328757268591092,0.15814914340860053
105.87669029099554,0.15267150047906947,0.15762372208164296
105.88169029099554,0.1520451817656903,0.15708755993721277
105.88669029099553,0.18591658024104712,0.15654081120332788
105.89169029099553,0.1507621684381692,0.784057022630775
105.89669029099552,0.1501053187432605,0.15541510846881795
105.90169029099552,0.149438707495099,0.15483659067199645
105.90669029099551,0.14876189202361484,0.15424731470025463
105.91169029099551,0.14807539050033894,0.15364781454099496
105.9166902909955,0.1473790454612021,0.15303791168370232
105.9216902909955,0.14667294747080908,0.15241768906721775
105.9266902909955,0.22485881484006648,0.15178728891686205
105.93169029099549,0.14523183620916513,0.1511465975466729
105.93669029099549,0.2689631660809413,0.15049589986905526
105.94169029099548,0.1437526707489032,0.1498350883985964
105.94669029099548,0.1429988962460048,0.14916422786152508
105.95169029099547,0.14223598305956747,0.1484836228225514
105.95669029099547,0.14146382423366424,0.14779314611661365
105.96169029099546,0.14068232311654885,0.14709268053928834
105.96669029099546,0.13989196245582802,0.20544674324859002
105.97169029099545,0.139092459746069,0.14566297541047216
105.97669029099545,0.13828421432955915,0.14493383433453996
105.98169029099545,0.13746702577758335,0.1441950766176857
105.98669029099544,0.13664099123025752,0.14344679225384627
105.99169029099544,0.13580642276957286,0.14268930339170505
105.99669029099543,0.1349633646777382,0.1419226440991717
106.00169029099543,0.13411158839067508,0.2531105690067515
106.00669029099542,0.13325164334794917,0.14036160891112395
106.01169029099542,0.13238320414865387,0.522507955396307
106.01669029099541,0.1315066259803765,0.13876443405533645
106.02169029099541,0.1306218202392802,0.1379524621217265
106.0266902909954,0.12972891367949496,0.13713165258981463
106.0316902909954,0.12882823821414965,0.13630235296819618
106.0366902909954,0.12791948506620607,0.13546420992813593
106.04169029099539,0.12700297739552904,0.13461756140329742
106.04669029099539,0.12607875087698453,0.13376243056893036
106.05169029099538,0.12514707738923836,0.1328991008538266
106.05669029099538,0.1242076985224082,0.1320272710082897
106.06169029099537,0.1232610012341004,0.13114735148521667
106.06669029099537,0.12230684163830936,0.13025916623907058
106.07169029099536,0.2299306633471297,0.1293629115508719
106.07669029099536,0.12037722291731041,0.12845913646489684
106.08169029099535,0.11940171239363166,0.127547200433538
106.08669029099535,0.17477808459432162,0.1266275826399061
106.09169029099534,0.11743008480945905,0.12570028531462304
106.09669029099534,0.28239954405301554,0.5071971229215397
106.10169029099534,0.1154314577130731,0.12382305919683717
106.10669029099533,0.11442232057541388,0.1228733722235183
106.11169029099533,0.11340665070842826,0.12191629543940526
106.11669029099532,0.11238471195838609,0.12095210830584108
106.12169029099532,0.28463694267230244,0.21798312606050257
106.12669029099531,0.11032217511479997,0.11900249242801421
106.13169029099531,0.10928185474513119,0.11801734027626506
106.1366902909953,0.10823561682262794,0.11702539894127037
106.1416902909953,0.10718340282562466,0.11602657934109269
106.1466902909953,0.10612559495512673,0.36464426717140486
106.15169029099529,0.10506221546430937,0.11400956727827628
106.15669029099529,0.10399316252729698,0.11299123857050627
106.16169029099528,0.10291888108669445,0.11196680981385436
106.16669029099528,0.10183915539037998,0.11093600593052554
106.17169029099527,0.10075441510272846,0.10989930745200055
106.17669029099527,0.43942550846602063,0.10885655458301895
106.18169029099526,0.09856967696089756,0.10780788056031694
106.18669029099526,0.09746991126620735,0.10675337622415942
106.19169029099525,0.09636547928824836,0.1056932930820987
106.19669029099525,0.09525631223888413,0.104627522117614
106.20169029099524,0.09414274365525067,0.10355643823484603
106.20669029099524,0.09302467348276046,0.23226107148574304
106.21169029099524,0.09190232988157948,0.10139813508572608
106.21669029099523,0.5704233610235849,0.10031121558172974
106.22169029099523,0.08964516424365089,0.09921928344966495
106.22669029099522,0.08851056836974516,0.09812240788427862
106.23169029099522,0.08737211886302232,0.09702071653037674
106.23669029099521,0.08622996999937765,0.40838498019910086
106.24169029099521,0.08508421424711574,0.09480345454420529
106.2466902909952,0.08393487001224638,0.09368795569363332
106.2516902909952,0.08278217572297926,0.092568143368839
106.2566902909952,0.08162622209035501,0.09144409911634804
106.26169029099519,0.08046704477038658,0.09031583003234926
106.26669029099519,0.07930490843977782,0.35215807571912316
106.27169029099518,0.07813979818265052,0.08804748512022677
106.27669029099518,0.07697184969419184,0.0869074868809559
106.28169029099517,0.07580122149762974,0.08576382134256125
106.28669029099517,0.0746280595413348,0.08953882840618732
106.29169029099516,0.23074708629512636,0.08346590086941293
106.29669029099516,0.07227437579381552,0.08231189699738187
106.30169029099515,0.07109411739689038,0.08115459428692098
106.30669029099515,0.06991177957704818,0.07999422027098942
106.31169029099514,0.06872745091370216,0.07883084800808268
106.31669029099514,0.067541202197695,0.07766451892782682
106.32169029099514,0.06635325077585487,0.07649550363846686
106.32669029099513,0.06516365444917224,0.07532382399657363
106.33169029099513,0.06397252906534037,0.07414959061440742
106.33669029099512,0.06277999955333687,0.07297292903882689
106.34169029099512,0.06158620768823745,0.07179399726149482
