timestamp,sample_timestamp,left_raw,right_raw
7947.0519757,7947.0519757,0.0,0.0
7947.0569757,7947.0569757,0.0,0.0
7947.0619757,7947.0619757,0.0,0.0
7947.0669757000005,7947.0669757000005,0.0,0.0
7947.071975700001,7947.071975700001,0.0815240693359599,0.0
7947.076975700001,7947.076975700001,0.0,0.0
7947.081975700001,7947.081975700001,0.0,0.0
7947.086975700001,7947.086975700001,0.0,0.0
7947.091975700001,7947.091975700001,0.0,0.0
7947.096975700001,7947.096975700001,0.0,0.0
7947.101975700001,7947.101975700001,0.0,0.0
7947.106975700001,7947.106975700001,0.0,0.0
7947.1119757000015,7947.1119757000015,0.0,0.0
7947.116975700002,7947.116975700002,0.0,0.0
7947.121975700002,7947.121975700002,0.0,0.0
7947.126975700002,7947.126975700002,0.2171896080914583,0.0
7947.131975700002,7947.131975700002,0.0,0.0
7947.136975700002,7947.136975700002,0.0,0.0
7947.141975700002,7947.141975700002,0.0,0.0
7947.146975700002,7947.146975700002,0.0,0.0
7947.151975700002,7947.151975700002,0.0,0.0
7947.1569757000025,7947.1569757000025,0.0,0.0
7947.161975700003,7947.161975700003,0.0,0.0
7947.166975700003,7947.166975700003,0.0,0.0
7947.171975700003,7947.171975700003,0.0,0.0
7947.176975700003,7947.176975700003,0.0,0.0
7947.181975700003,7947.181975700003,-0.21701606040305946,0.0
7947.186975700003,7947.186975700003,0.0,0.0
7947.191975700003,7947.191975700003,0.0,0.0
7947.196975700003,7947.196975700003,0.0,0.0
7947.2019757000035,7947.2019757000035,0.0,0.0
7947.206975700004,7947.206975700004,0.0,0.0
7947.211975700004,7947.211975700004,0.0,0.0
7947.216975700004,7947.216975700004,0.0,0.0
7947.221975700004,7947.221975700004,0.0,0.0
7947.226975700004,7947.226975700004,0.0,0.0
7947.231975700004,7947.231975700004,0.0,0.0
7947.236975700004,7947.236975700004,0.0,0.0
7947.241975700004,7947.241975700004,0.0,0.0
7947.246975700004,7947.246975700004,0.0,0.0
7947.251975700005,7947.251975700005,0.0,0.0
7947.256975700005,7947.256975700005,0.0,0.0
7947.261975700005,7947.261975700005,-0.16588603701884005,0.0
7947.266975700005,7947.266975700005,0.0,0.0
7947.271975700005,7947.271975700005,0.0,0.0
7947.276975700005,7947.276975700005,0.0,0.0
7947.281975700005,7947.281975700005,0.0,0.0
7947.286975700005,7947.286975700005,0.0,0.0
7947.291975700005,7947.291975700005,0.0,0.0
7947.2969757000055,7947.2969757000055,0.0,0.0
7947.301975700006,7947.301975700006,0.0,0.0
7947.306975700006,7947.306975700006,0.0,0.0
7947.311975700006,7947.311975700006,0.0,0.0
7947.316975700006,7947.316975700006,-0.0036924770587990936,0.0
7947.321975700006,7947.321975700006,0.0,0.0
7947.326975700006,7947.326975700006,0.0,0.0
7947.331975700006,7947.331975700006,0.0,0.0
7947.336975700006,7947.336975700006,0.0,0.0
7947.3419757000065,7947.3419757000065,-0.02819447428551494,0.0
7947.346975700007,7947.346975700007,0.0,0.0
7947.351975700007,7947.351975700007,0.0,0.0
7947.356975700007,7947.356975700007,0.0,0.0
7947.361975700007,7947.361975700007,0.0,0.0
7947.366975700007,7947.366975700007,0.0,0.0
7947.371975700007,7947.371975700007,0.0,0.0
7947.376975700007,7947.376975700007,0.0,0.0
7947.381975700007,7947.381975700007,0.0,0.0
7947.3869757000075,7947.3869757000075,0.0,0.0
7947.391975700008,7947.391975700008,0.0,0.0
7947.396975700008,7947.396975700008,-0.07092592428194539,0.0
7947.401975700008,7947.401975700008,0.0,0.0
7947.406975700008,7947.406975700008,0.0,0.0
7947.411975700008,7947.411975700008,0.0,0.0
7947.416975700008,7947.416975700008,0.0,0.0
7947.421975700008,7947.421975700008,0.0,0.0
7947.426975700008,7947.426975700008,0.0,0.0
7947.4319757000085,7947.4319757000085,0.0,0.0
7947.436975700009,7947.436975700009,0.0,0.0
7947.441975700009,7947.441975700009,0.0,0.0
7947.446975700009,7947.446975700009,0.0,0.0
7947.451975700009,7947.451975700009,0.0,0.0
7947.456975700009,7947.456975700009,0.0,0.0
7947.461975700009,7947.461975700009,0.0,0.0
7947.466975700009,7947.466975700009,0.0,0.0
7947.471975700009,7947.471975700009,0.0,0.0
7947.4769757000095,7947.4769757000095,-0.08818424523046128,0.0
7947.48197570001,7947.48197570001,0.0,0.0
7947.48697570001,7947.48697570001,0.0,0.0
7947.49197570001,7947.49197570001,0.0,0.0
7947.49697570001,7947.49697570001,0.0,0.0
7947.50197570001,7947.50197570001,0.0,0.0
7947.50697570001,7947.50697570001,0.0,0.0
7947.51197570001,7947.51197570001,0.0,0.0
7947.51697570001,7947.51697570001,0.0,0.0
7947.52197570001,7947.52197570001,0.0,0.0
7947.526975700011,7947.526975700011,0.0,0.0
7947.531975700011,7947.531975700011,0.08735842497796431,0.0
7947.536975700011,7947.536975700011,0.0,0.0
7947.541975700011,7947.541975700011,0.0,0.0
7947.546975700011,7947.546975700011,0.0,0.0
7947.551975700011,7947.551975700011,0.0,0.0
7947.556975700011,7947.556975700011,0.0,0.0
7947.561975700011,7947.561975700011,0.0,0.0
7947.566975700011,7947.566975700011,0.0,0.0
7947.5719757000115,7947.5719757000115,0.0,0.0
7947.576975700012,7947.576975700012,0.0,0.0
7947.581975700012,7947.581975700012,0.0,0.0
7947.586975700012,7947.586975700012,0.0482089518341528,0.0
7947.591975700012,7947.591975700012,0.0,0.0
7947.596975700012,7947.596975700012,0.0,0.0
7947.601975700012,7947.601975700012,0.0,0.0
7947.606975700012,7947.606975700012,0.0,0.0
7947.611975700012,7947.611975700012,0.023822964902689894,0.0
7947.6169757000125,7947.6169757000125,0.0,0.0
7947.621975700013,7947.621975700013,0.0,0.0
7947.626975700013,7947.626975700013,0.0,0.0
7947.631975700013,7947.631975700013,0.0,0.0
7947.636975700013,7947.636975700013,0.0,0.0
7947.641975700013,7947.641975700013,0.0,0.0
7947.646975700013,7947.646975700013,0.0,0.0
7947.651975700013,7947.651975700013,0.0,0.0
7947.656975700013,7947.656975700013,0.0,0.0
7947.6619757000135,7947.6619757000135,0.0,0.0
7947.666975700014,7947.666975700014,0.1559614736122918,0.0
7947.671975700014,7947.671975700014,0.0,0.0
7947.676975700014,7947.676975700014,0.0,0.0
7947.681975700014,7947.681975700014,0.0,0.0
7947.686975700014,7947.686975700014,0.0,0.0
7947.691975700014,7947.691975700014,0.0,0.0
7947.696975700014,7947.696975700014,0.0,0.0
7947.701975700014,7947.701975700014,0.0,0.0
7947.7069757000145,7947.7069757000145,0.0,0.0
7947.711975700015,7947.711975700015,0.0,0.0
7947.716975700015,7947.716975700015,0.0,0.0
7947.721975700015,7947.721975700015,-0.04140117938292737,0.0
7947.726975700015,7947.726975700015,0.0,0.0
7947.731975700015,7947.731975700015,0.0,0.0
7947.736975700015,7947.736975700015,0.0,0.0
7947.741975700015,7947.741975700015,0.0,0.0
7947.746975700015,7947.746975700015,0.06714595669975812,0.0
7947.7519757000155,7947.7519757000155,0.0,0.0
7947.756975700016,7947.756975700016,0.0,0.0
7947.761975700016,7947.761975700016,0.0,0.0
7947.766975700016,7947.766975700016,0.0,0.0
7947.771975700016,7947.771975700016,0.0,0.0
7947.776975700016,7947.776975700016,-2.1548554358887494e-05,0.0
7947.781975700016,7947.781975700016,0.0,0.0
7947.786975700016,7947.786975700016,0.0,0.0
7947.791975700016,7947.791975700016,0.0,0.0
7947.796975700016,7947.796975700016,0.0,0.0
7947.801975700017,7947.801975700017,-0.046869746931094095,0.0
7947.806975700017,7947.806975700017,0.0,0.0
7947.811975700017,7947.811975700017,0.0,0.0
7947.816975700017,7947.816975700017,0.0,0.0
7947.821975700017,7947.821975700017,0.0,0.0
7947.826975700017,7947.826975700017,0.0,0.0
7947.831975700017,7947.831975700017,0.0,0.0
7947.836975700017,7947.836975700017,0.0,0.0
7947.841975700017,7947.841975700017,0.0,0.0
7947.8469757000175,7947.8469757000175,0.0,0.0
7947.851975700018,7947.851975700018,0.0,0.0
7947.856975700018,7947.856975700018,-0.043486879731882574,0.0
7947.861975700018,7947.861975700018,0.0,0.0
7947.866975700018,7947.866975700018,0.0,0.0
7947.871975700018,7947.871975700018,0.0,0.0
7947.876975700018,7947.876975700018,0.0,0.0
7947.881975700018,7947.881975700018,0.024449053276867697,0.0
7947.886975700018,7947.886975700018,0.0,0.0
7947.8919757000185,7947.8919757000185,0.0,0.0
7947.896975700019,7947.896975700019,0.0,0.0
7947.901975700019,7947.901975700019,0.0,0.0
7947.906975700019,7947.906975700019,0.0,0.0
7947.911975700019,7947.911975700019,0.0,0.0
7947.916975700019,7947.916975700019,0.0,0.0
7947.921975700019,7947.921975700019,0.0,0.0
7947.926975700019,7947.926975700019,0.0,0.0
7947.931975700019,7947.931975700019,0.0,0.0
7947.9369757000195,7947.9369757000195,-0.17976859689150687,0.0
7947.94197570002,7947.94197570002,0.0,0.0
7947.94697570002,7947.94697570002,0.0,0.0
7947.95197570002,7947.95197570002,0.0,0.0
7947.95697570002,7947.95697570002,0.0,0.0
7947.96197570002,7947.96197570002,0.0,0.0
7947.96697570002,7947.96697570002,0.0,0.0
7947.97197570002,7947.97197570002,0.0,0.0
7947.97697570002,7947.97697570002,0.0,0.0
7947.9819757000205,7947.9819757000205,0.0,0.0
7947.986975700021,7947.986975700021,0.0,0.0
7947.991975700021,7947.991975700021,0.0,0.0
7947.996975700021,7947.996975700021,0.0,0.0
7948.001975700021,7948.001975700021,0.0,0.0
7948.006975700021,7948.006975700021,0.0,0.0
7948.011975700021,7948.011975700021,0.0,0.0
7948.016975700021,7948.016975700021,-0.0760158403570157,0.0
7948.021975700021,7948.021975700021,0.0,0.0
7948.0269757000215,7948.0269757000215,0.0,0.0
7948.031975700022,7948.031975700022,0.0,0.0
7948.036975700022,7948.036975700022,0.0,0.0
7948.041975700022,7948.041975700022,0.0,0.0
7948.046975700022,7948.046975700022,0.0,0.0
7948.051975700022,7948.051975700022,0.0,0.0
7948.056975700022,7948.056975700022,0.0,0.0
7948.061975700022,7948.061975700022,0.0,0.0
7948.066975700022,7948.066975700022,0.0,0.0
7948.071975700022,7948.071975700022,0.030024522471915616,0.0
7948.076975700023,7948.076975700023,0.0,0.0
7948.081975700023,7948.081975700023,0.0,0.0
7948.086975700023,7948.086975700023,0.0,0.0
7948.091975700023,7948.091975700023,0.0,0.0
7948.096975700023,7948.096975700023,0.0,0.0
7948.101975700023,7948.101975700023,0.0,0.0
7948.106975700023,7948.106975700023,0.0,0.0
7948.111975700023,7948.111975700023,0.0,0.0
7948.116975700023,7948.116975700023,0.0,0.0
7948.1219757000235,7948.1219757000235,0.0,0.0
7948.126975700024,7948.126975700024,0.14001549063685997,0.0
7948.131975700024,7948.131975700024,0.0,0.0
7948.136975700024,7948.136975700024,0.0,0.0
7948.141975700024,7948.141975700024,0.0,0.0
7948.146975700024,7948.146975700024,0.0,0.0
7948.151975700024,7948.151975700024,0.0,0.0
7948.156975700024,7948.156975700024,0.0,0.0
7948.161975700024,7948.161975700024,0.0,0.0
7948.1669757000245,7948.1669757000245,0.0,0.0
7948.171975700025,7948.171975700025,0.0,0.0
7948.176975700025,7948.176975700025,0.0,0.0
7948.181975700025,7948.181975700025,0.0,0.0
7948.186975700025,7948.186975700025,0.0,0.0
7948.191975700025,7948.191975700025,0.0,0.0
7948.196975700025,7948.196975700025,0.0,0.0
7948.201975700025,7948.201975700025,0.0,0.0
7948.206975700025,7948.206975700025,0.13312830682804314,0.0
7948.2119757000255,7948.2119757000255,0.0,0.0
7948.216975700026,7948.216975700026,0.0,0.0
7948.221975700026,7948.221975700026,0.0,0.0
7948.226975700026,7948.226975700026,0.0,0.0
7948.231975700026,7948.231975700026,0.0,0.0
7948.236975700026,7948.236975700026,0.0,0.0
7948.241975700026,7948.241975700026,0.0,0.0
7948.246975700026,7948.246975700026,0.0,0.0
7948.251975700026,7948.251975700026,0.0,0.0
7948.2569757000265,7948.2569757000265,0.0,0.0
7948.261975700027,7948.261975700027,-0.04637541414980978,0.0
7948.266975700027,7948.266975700027,0.0,0.0
7948.271975700027,7948.271975700027,0.0,0.0
7948.276975700027,7948.276975700027,0.0,0.0
7948.281975700027,7948.281975700027,0.0,0.0
7948.286975700027,7948.286975700027,0.1481049266703291,0.0
7948.291975700027,7948.291975700027,0.0,0.0
7948.296975700027,7948.296975700027,0.0,0.0
7948.3019757000275,7948.3019757000275,0.0,0.0
7948.306975700028,7948.306975700028,0.0,0.0
7948.311975700028,7948.311975700028,0.0,0.0
7948.316975700028,7948.316975700028,0.0,0.0
7948.321975700028,7948.321975700028,0.0,0.0
7948.326975700028,7948.326975700028,0.0,0.0
7948.331975700028,7948.331975700028,0.0,0.0
7948.336975700028,7948.336975700028,0.0,0.0
7948.341975700028,7948.341975700028,0.0388303632228215,0.0
7948.346975700028,7948.346975700028,0.0,0.0
7948.351975700029,7948.351975700029,0.0,0.0
7948.356975700029,7948.356975700029,0.0,0.0
7948.361975700029,7948.361975700029,0.0,0.0
7948.366975700029,7948.366975700029,0.0,0.0
7948.371975700029,7948.371975700029,0.0,0.0
7948.376975700029,7948.376975700029,0.0,0.0
7948.381975700029,7948.381975700029,0.0,0.0
7948.386975700029,7948.386975700029,0.0,0.0
7948.391975700029,7948.391975700029,0.0,0.0
7948.3969757000295,7948.3969757000295,-0.08107107343064067,0.0
7948.40197570003,7948.40197570003,0.0,0.0
7948.40697570003,7948.40697570003,0.0,0.0
7948.41197570003,7948.41197570003,0.0,0.0
7948.41697570003,7948.41697570003,0.0,0.0
7948.42197570003,7948.42197570003,0.0,0.0
7948.42697570003,7948.42697570003,0.0,0.0
7948.43197570003,7948.43197570003,0.0,0.0
7948.43697570003,7948.43697570003,0.0,0.0
7948.4419757000305,7948.4419757000305,0.0,0.0
7948.446975700031,7948.446975700031,0.0,0.0
7948.451975700031,7948.451975700031,0.0,0.0
7948.456975700031,7948.456975700031,0.0,0.0
7948.461975700031,7948.461975700031,0.0,0.0
7948.466975700031,7948.466975700031,0.0,0.0
7948.471975700031,7948.471975700031,0.0,0.0
7948.476975700031,7948.476975700031,-0.1067930522111371,0.0
7948.481975700031,7948.481975700031,0.0,0.0
7948.4869757000315,7948.4869757000315,0.0,0.0
7948.491975700032,7948.491975700032,0.0,0.0
7948.496975700032,7948.496975700032,0.0,0.0
7948.501975700032,7948.501975700032,0.0,0.0
7948.506975700032,7948.506975700032,0.0,0.0
7948.511975700032,7948.511975700032,0.0,0.0
7948.516975700032,7948.516975700032,0.0,0.0
7948.521975700032,7948.521975700032,0.0,0.0
7948.526975700032,7948.526975700032,0.0,0.0
7948.5319757000325,7948.5319757000325,0.0,0.0
7948.536975700033,7948.536975700033,0.0,0.0
7948.541975700033,7948.541975700033,0.0,0.0
7948.546975700033,7948.546975700033,0.0,0.0
7948.551975700033,7948.551975700033,0.0,0.0
7948.556975700033,7948.556975700033,-0.23140828217916073,0.0
7948.561975700033,7948.561975700033,0.0,0.0
7948.566975700033,7948.566975700033,0.0,0.0
7948.571975700033,7948.571975700033,0.0,0.0
7948.5769757000335,7948.5769757000335,0.0,0.0
7948.581975700034,7948.581975700034,0.0,0.0
7948.586975700034,7948.586975700034,0.0,0.0
7948.591975700034,7948.591975700034,0.0,0.0
7948.596975700034,7948.596975700034,0.0,0.0
7948.601975700034,7948.601975700034,0.0,0.0
7948.606975700034,7948.606975700034,0.0,0.0
7948.611975700034,7948.611975700034,0.02061904868970367,0.0
7948.616975700034,7948.616975700034,0.0,0.0
7948.621975700034,7948.621975700034,0.0,0.0
7948.626975700035,7948.626975700035,0.0,0.0
7948.631975700035,7948.631975700035,0.0,0.0
7948.636975700035,7948.636975700035,0.0,0.0
7948.641975700035,7948.641975700035,0.0,0.0
7948.646975700035,7948.646975700035,0.0,0.0
7948.651975700035,7948.651975700035,0.0,0.0
7948.656975700035,7948.656975700035,0.0,0.0
7948.661975700035,7948.661975700035,0.0,0.0
7948.666975700035,7948.666975700035,0.0,0.0
7948.671975700036,7948.671975700036,0.0,0.0
7948.676975700036,7948.676975700036,0.0,0.0
7948.681975700036,7948.681975700036,0.0,0.0
7948.686975700036,7948.686975700036,0.0,0.0
7948.691975700036,7948.691975700036,0.0007816415688706465,0.0
7948.696975700036,7948.696975700036,0.0,0.0
7948.701975700036,7948.701975700036,0.0,0.0
7948.706975700036,7948.706975700036,0.0,0.0
7948.711975700036,7948.711975700036,0.0,0.0
7948.7169757000365,7948.7169757000365,0.0,0.0
7948.721975700037,7948.721975700037,0.0,0.0
7948.726975700037,7948.726975700037,0.0,0.0
7948.731975700037,7948.731975700037,0.0,0.0
7948.736975700037,7948.736975700037,0.0,0.0
7948.741975700037,7948.741975700037,0.0,0.0
7948.746975700037,7948.746975700037,0.11220533930520463,0.0
7948.751975700037,7948.751975700037,0.0,0.0
7948.756975700037,7948.756975700037,0.0,0.0
7948.7619757000375,7948.7619757000375,0.0,0.0
7948.766975700038,7948.766975700038,0.0,0.0
7948.771975700038,7948.771975700038,0.0,0.0
7948.776975700038,7948.776975700038,0.0,0.0
7948.781975700038,7948.781975700038,0.0,0.0
7948.786975700038,7948.786975700038,0.0,0.0
7948.791975700038,7948.791975700038,0.0,0.0
7948.796975700038,7948.796975700038,0.0,0.0
7948.801975700038,7948.801975700038,0.02714749350917224,0.0
7948.8069757000385,7948.8069757000385,0.0,0.0
7948.811975700039,7948.811975700039,0.0,0.0
7948.816975700039,7948.816975700039,0.0,0.0
7948.821975700039,7948.821975700039,0.0,0.0
7948.826975700039,7948.826975700039,0.047750385751591504,0.0
7948.831975700039,7948.831975700039,0.0,0.0
7948.836975700039,7948.836975700039,0.0,0.0
7948.841975700039,7948.841975700039,0.0,0.0
7948.846975700039,7948.846975700039,0.0,0.0
7948.8519757000395,7948.8519757000395,0.0,0.0
7948.85697570004,7948.85697570004,0.0,0.0
7948.86197570004,7948.86197570004,0.0,0.0
7948.86697570004,7948.86697570004,0.0,0.0
7948.87197570004,7948.87197570004,0.0,0.0
7948.87697570004,7948.87697570004,0.0,0.0
7948.88197570004,7948.88197570004,0.12198568804624592,0.0
7948.88697570004,7948.88697570004,0.0,0.0
7948.89197570004,7948.89197570004,0.0,0.0
7948.8969757000405,7948.8969757000405,0.0,0.0
7948.901975700041,7948.901975700041,0.0,0.0
7948.906975700041,7948.906975700041,0.0,0.0
7948.911975700041,7948.911975700041,0.0,0.0
7948.916975700041,7948.916975700041,0.0,0.0
7948.921975700041,7948.921975700041,0.0,0.0
7948.926975700041,7948.926975700041,0.0,0.0
7948.931975700041,7948.931975700041,0.0,0.0
7948.936975700041,7948.936975700041,0.0,0.0
7948.941975700041,7948.941975700041,0.0,0.0
7948.946975700042,7948.946975700042,0.0,0.0
7948.951975700042,7948.951975700042,0.0,0.0
7948.956975700042,7948.956975700042,0.0,0.0
7948.961975700042,7948.961975700042,0.0,0.0
7948.966975700042,7948.966975700042,0.0,0.0
7948.971975700042,7948.971975700042,0.0,0.0
7948.976975700042,7948.976975700042,0.0,0.0
7948.981975700042,7948.981975700042,0.0,0.0
7948.986975700042,7948.986975700042,0.0,0.0
7948.9919757000425,7948.9919757000425,0.0,0.0
7948.996975700043,7948.996975700043,0.0,0.0
7949.001975700043,7949.001975700043,0.0,0.0
7949.006975700043,7949.006975700043,0.0,0.0
7949.011975700043,7949.011975700043,0.0,0.0
7949.016975700043,7949.016975700043,-0.15927163129771912,0.0
7949.021975700043,7949.021975700043,0.0,0.0
7949.026975700043,7949.026975700043,0.0,0.0
7949.031975700043,7949.031975700043,0.0,0.0
7949.0369757000435,7949.0369757000435,0.0,0.0
7949.041975700044,7949.041975700044,0.0,0.0
7949.046975700044,7949.046975700044,0.0,0.0
7949.051975700044,7949.051975700044,0.0,0.0
7949.056975700044,7949.056975700044,0.0,0.0
7949.061975700044,7949.061975700044,0.0,0.0
7949.066975700044,7949.066975700044,0.0,0.0
7949.071975700044,7949.071975700044,0.017250492381697426,0.0
7949.076975700044,7949.076975700044,0.0,0.0
7949.0819757000445,7949.0819757000445,0.0,0.0
7949.086975700045,7949.086975700045,0.0,0.0
7949.091975700045,7949.091975700045,0.0,0.0
7949.096975700045,7949.096975700045,0.0,0.0
7949.101975700045,7949.101975700045,0.0,0.0
7949.106975700045,7949.106975700045,0.0,0.0
7949.111975700045,7949.111975700045,0.0,0.0
7949.116975700045,7949.116975700045,0.0,0.0
7949.121975700045,7949.121975700045,0.0,0.0
7949.1269757000455,7949.1269757000455,0.0,0.0
7949.131975700046,7949.131975700046,0.0,0.0
7949.136975700046,7949.136975700046,0.0,0.0
7949.141975700046,7949.141975700046,0.0,0.0
7949.146975700046,7949.146975700046,0.0,0.0
7949.151975700046,7949.151975700046,0.0015639517668833726,0.0
7949.156975700046,7949.156975700046,0.0,0.0
7949.161975700046,7949.161975700046,0.0,0.0
7949.166975700046,7949.166975700046,0.0,0.0
7949.1719757000465,7949.1719757000465,0.0,0.0
7949.176975700047,7949.176975700047,0.0,0.0
7949.181975700047,7949.181975700047,0.0,0.0
7949.186975700047,7949.186975700047,0.0,0.0
7949.191975700047,7949.191975700047,0.0,0.0
7949.196975700047,7949.196975700047,0.0,0.0
7949.201975700047,7949.201975700047,0.0,0.0
7949.206975700047,7949.206975700047,0.0,0.0
7949.211975700047,7949.211975700047,0.0,0.0
7949.216975700047,7949.216975700047,0.0,0.0
7949.221975700048,7949.221975700048,0.0,0.0
7949.226975700048,7949.226975700048,0.0,0.0
7949.231975700048,7949.231975700048,-0.019920661550847193,0.0
7949.236975700048,7949.236975700048,0.0,0.0
7949.241975700048,7949.241975700048,0.0,0.0
7949.246975700048,7949.246975700048,0.0,0.0
7949.251975700048,7949.251975700048,0.0,0.0
7949.256975700048,7949.256975700048,0.0,0.0
7949.261975700048,7949.261975700048,0.0,0.0
7949.2669757000485,7949.2669757000485,0.0,0.0
7949.271975700049,7949.271975700049,0.0,0.0
7949.276975700049,7949.276975700049,0.0,0.0
7949.281975700049,7949.281975700049,0.0,0.0
7949.286975700049,7949.286975700049,0.13085050028346834,0.0
7949.291975700049,7949.291975700049,0.0,0.0
7949.296975700049,7949.296975700049,0.0,0.0
7949.301975700049,7949.301975700049,0.0,0.0
7949.306975700049,7949.306975700049,0.0,0.0
7949.3119757000495,7949.3119757000495,0.0,0.0
7949.31697570005,7949.31697570005,0.0,0.0
7949.32197570005,7949.32197570005,0.0,0.0
7949.32697570005,7949.32697570005,0.0,0.0
7949.33197570005,7949.33197570005,0.0,0.0
7949.33697570005,7949.33697570005,0.0,0.0
7949.34197570005,7949.34197570005,0.0,0.0
7949.34697570005,7949.34697570005,0.0,0.0
7949.35197570005,7949.35197570005,0.0,0.0
7949.3569757000505,7949.3569757000505,0.0,0.0
7949.361975700051,7949.361975700051,0.0,0.0
7949.366975700051,7949.366975700051,0.0241909844577841,0.0
7949.371975700051,7949.371975700051,0.0,0.0
7949.376975700051,7949.376975700051,0.0,0.0
7949.381975700051,7949.381975700051,0.0,0.0
7949.386975700051,7949.386975700051,0.0,0.0
7949.391975700051,7949.391975700051,0.0,0.0
7949.396975700051,7949.396975700051,0.0,0.0
7949.4019757000515,7949.4019757000515,0.0,0.0
7949.406975700052,7949.406975700052,0.0,0.0
7949.411975700052,7949.411975700052,0.0,0.0
7949.416975700052,7949.416975700052,0.0,0.0
7949.421975700052,7949.421975700052,0.12322090693369452,0.0
7949.426975700052,7949.426975700052,0.0,0.0
7949.431975700052,7949.431975700052,0.0,0.0
7949.436975700052,7949.436975700052,0.0,0.0
7949.441975700052,7949.441975700052,0.0,0.0
7949.4469757000525,7949.4469757000525,0.034804871679693226,0.0
7949.451975700053,7949.451975700053,0.0,0.0
7949.456975700053,7949.456975700053,0.0,0.0
7949.461975700053,7949.461975700053,0.0,0.0
7949.466975700053,7949.466975700053,0.0,0.0
7949.471975700053,7949.471975700053,0.0,0.0
7949.476975700053,7949.476975700053,-0.17824774339697882,0.0
7949.481975700053,7949.481975700053,0.0,0.0
7949.486975700053,7949.486975700053,0.0,0.0
7949.491975700053,7949.491975700053,0.0,0.0
7949.496975700054,7949.496975700054,0.0,0.0
7949.501975700054,7949.501975700054,0.01555504278943494,0.0
7949.506975700054,7949.506975700054,0.0,0.0
7949.511975700054,7949.511975700054,0.0,0.0
7949.516975700054,7949.516975700054,0.0,0.0
7949.521975700054,7949.521975700054,0.0,0.0
7949.526975700054,7949.526975700054,0.0,0.0
7949.531975700054,7949.531975700054,0.0,0.0
7949.536975700054,7949.536975700054,0.0,0.0
7949.5419757000545,7949.5419757000545,0.0,0.0
7949.546975700055,7949.546975700055,0.0,0.0
7949.551975700055,7949.551975700055,0.0,0.0
7949.556975700055,7949.556975700055,-0.1614135727202913,0.0
7949.561975700055,7949.561975700055,0.0,0.0
7949.566975700055,7949.566975700055,0.0,0.0
7949.571975700055,7949.571975700055,0.0,0.0
7949.576975700055,7949.576975700055,0.0,0.0
7949.581975700055,7949.581975700055,0.0,0.0
7949.5869757000555,7949.5869757000555,0.0,0.0
7949.591975700056,7949.591975700056,0.0,0.0
7949.596975700056,7949.596975700056,0.0,0.0
7949.601975700056,7949.601975700056,0.0,0.0
7949.606975700056,7949.606975700056,0.0,0.0
7949.611975700056,7949.611975700056,0.0032393176651962573,0.0
7949.616975700056,7949.616975700056,0.0,0.0
7949.621975700056,7949.621975700056,0.0,0.0
7949.626975700056,7949.626975700056,0.0,0.0
7949.6319757000565,7949.6319757000565,0.0,0.0
7949.636975700057,7949.636975700057,-0.07339588196783603,0.0
7949.641975700057,7949.641975700057,0.0,0.0
7949.646975700057,7949.646975700057,0.0,0.0
7949.651975700057,7949.651975700057,0.0,0.0
7949.656975700057,7949.656975700057,0.0,0.0
7949.661975700057,7949.661975700057,0.0,0.0
7949.666975700057,7949.666975700057,0.0,0.0
7949.671975700057,7949.671975700057,0.0,0.0
7949.6769757000575,7949.6769757000575,0.0,0.0
7949.681975700058,7949.681975700058,0.0,0.0
7949.686975700058,7949.686975700058,0.0,0.0
7949.691975700058,7949.691975700058,-0.023495813776220745,0.0
7949.696975700058,7949.696975700058,0.0,0.0
7949.701975700058,7949.701975700058,0.0,0.0
7949.706975700058,7949.706975700058,0.0,0.0
7949.711975700058,7949.711975700058,0.0,0.0
7949.716975700058,7949.716975700058,0.0,0.0
7949.7219757000585,7949.7219757000585,0.0,0.0
7949.726975700059,7949.726975700059,0.0,0.0
7949.731975700059,7949.731975700059,0.0,0.0
7949.736975700059,7949.736975700059,0.0,0.0
7949.741975700059,7949.741975700059,0.0,0.0
7949.746975700059,7949.746975700059,0.0,0.0
7949.751975700059,7949.751975700059,0.0,0.0
7949.756975700059,7949.756975700059,0.0,0.0
7949.761975700059,7949.761975700059,0.0,0.0
7949.766975700059,7949.766975700059,0.0,0.0
7949.77197570006,7949.77197570006,-0.03544897920726582,0.0
7949.77697570006,7949.77697570006,0.0,0.0
7949.78197570006,7949.78197570006,0.0,0.0
7949.78697570006,7949.78697570006,0.0,0.0
7949.79197570006,7949.79197570006,0.0,0.0
7949.79697570006,7949.79697570006,0.0,0.0
7949.80197570006,7949.80197570006,0.0,0.0
7949.80697570006,7949.80697570006,0.0,0.0
7949.81197570006,7949.81197570006,0.0,0.0
7949.8169757000605,7949.8169757000605,0.0,0.0
7949.821975700061,7949.821975700061,0.0,0.0
7949.826975700061,7949.826975700061,0.09049647979906415,0.0
7949.831975700061,7949.831975700061,0.0,0.0
7949.836975700061,7949.836975700061,0.0,0.0
7949.841975700061,7949.841975700061,0.0,0.0
7949.846975700061,7949.846975700061,0.0,0.0
7949.851975700061,7949.851975700061,0.0,0.0
7949.856975700061,7949.856975700061,0.0,0.0
7949.8619757000615,7949.8619757000615,0.0,0.0
7949.866975700062,7949.866975700062,0.0,0.0
7949.871975700062,7949.871975700062,0.0,0.0
7949.876975700062,7949.876975700062,0.0,0.0
7949.881975700062,7949.881975700062,0.2257391896057095,0.0
7949.886975700062,7949.886975700062,0.0,0.0
7949.891975700062,7949.891975700062,0.0,0.0
7949.896975700062,7949.896975700062,0.0,0.0
7949.901975700062,7949.901975700062,0.0,0.0
7949.9069757000625,7949.9069757000625,0.00479577296252442,0.0
7949.911975700063,7949.911975700063,0.0,0.0
7949.916975700063,7949.916975700063,0.0,0.0
7949.921975700063,7949.921975700063,0.0,0.0
7949.926975700063,7949.926975700063,0.0,0.0
7949.931975700063,7949.931975700063,0.0,0.0
7949.936975700063,7949.936975700063,0.0,0.0
7949.941975700063,7949.941975700063,0.0,0.0
7949.946975700063,7949.946975700063,0.0,0.0
7949.9519757000635,7949.9519757000635,0.0,0.0
7949.956975700064,7949.956975700064,0.0,0.0
7949.961975700064,7949.961975700064,0.09777424986373826,0.0
7949.966975700064,7949.966975700064,0.0,0.0
7949.971975700064,7949.971975700064,0.0,0.0
7949.976975700064,7949.976975700064,0.0,0.0
7949.981975700064,7949.981975700064,0.0,0.0
7949.986975700064,7949.986975700064,0.0,0.0
7949.991975700064,7949.991975700064,0.0,0.0
7949.9969757000645,7949.9969757000645,0.0,0.0
7950.001975700065,7950.001975700065,0.0,0.0
7950.006975700065,7950.006975700065,0.0,0.0
7950.011975700065,7950.011975700065,0.0,0.0
7950.016975700065,7950.016975700065,-0.09329616161971302,0.0
7950.021975700065,7950.021975700065,0.0,0.0
7950.026975700065,7950.026975700065,0.0,0.0
7950.031975700065,7950.031975700065,0.0,0.0
7950.036975700065,7950.036975700065,0.0,0.0
7950.041975700065,7950.041975700065,0.06203657845264343,0.0
7950.046975700066,7950.046975700066,0.0,0.0
7950.051975700066,7950.051975700066,0.0,0.0
7950.056975700066,7950.056975700066,0.0,0.0
7950.061975700066,7950.061975700066,0.0,0.0
7950.066975700066,7950.066975700066,0.0,0.0
7950.071975700066,7950.071975700066,0.005283449554736932,0.0
7950.076975700066,7950.076975700066,0.0,0.0
7950.081975700066,7950.081975700066,0.0,0.0
7950.086975700066,7950.086975700066,0.0,0.0
7950.0919757000665,7950.0919757000665,0.0,0.0
7950.096975700067,7950.096975700067,-0.1265863346176813,0.0
7950.101975700067,7950.101975700067,0.0,0.0
7950.106975700067,7950.106975700067,0.0,0.0
7950.111975700067,7950.111975700067,0.0,0.0
7950.116975700067,7950.116975700067,0.0,0.0
7950.121975700067,7950.121975700067,0.05569161875339465,0.0
7950.126975700067,7950.126975700067,0.0,0.0
7950.131975700067,7950.131975700067,0.0,0.0
7950.1369757000675,7950.1369757000675,0.0,0.0
7950.141975700068,7950.141975700068,0.0,0.0
7950.146975700068,7950.146975700068,0.0,0.0
7950.151975700068,7950.151975700068,-0.024730317474428734,0.0
7950.156975700068,7950.156975700068,0.0,0.0
7950.161975700068,7950.161975700068,0.0,0.0
7950.166975700068,7950.166975700068,0.0,0.0
7950.171975700068,7950.171975700068,0.0,0.0
7950.176975700068,7950.176975700068,-0.009744514491077506,0.0
7950.1819757000685,7950.1819757000685,0.0,0.0
7950.186975700069,7950.186975700069,0.0,0.0
7950.191975700069,7950.191975700069,0.0,0.0
7950.196975700069,7950.196975700069,0.0,0.0
7950.201975700069,7950.201975700069,0.0,0.0
7950.206975700069,7950.206975700069,0.0,0.0
7950.211975700069,7950.211975700069,0.0,0.0
7950.216975700069,7950.216975700069,0.0,0.0
7950.221975700069,7950.221975700069,0.0,0.0
7950.2269757000695,7950.2269757000695,0.0,0.0
7950.23197570007,7950.23197570007,-0.1072612036211758,0.0
7950.23697570007,7950.23697570007,0.0,0.0
7950.24197570007,7950.24197570007,0.0,0.0
7950.24697570007,7950.24697570007,0.0,0.0
7950.25197570007,7950.25197570007,0.0,0.0
7950.25697570007,7950.25697570007,0.0,0.0
7950.26197570007,7950.26197570007,0.0,0.0
7950.26697570007,7950.26697570007,0.0,0.0
7950.2719757000705,7950.2719757000705,0.0,0.0
7950.276975700071,7950.276975700071,0.0,0.0
7950.281975700071,7950.281975700071,0.0,0.0
7950.286975700071,7950.286975700071,0.024562241544466692,0.0
7950.291975700071,7950.291975700071,0.0,0.0
7950.296975700071,7950.296975700071,0.0,0.0
7950.301975700071,7950.301975700071,0.0,0.0
7950.306975700071,7950.306975700071,0.0,0.0
7950.311975700071,7950.311975700071,0.0,0.0
7950.316975700071,7950.316975700071,0.0,0.0
7950.321975700072,7950.321975700072,0.0,0.0
7950.326975700072,7950.326975700072,0.0,0.0
7950.331975700072,7950.331975700072,0.0,0.0
7950.336975700072,7950.336975700072,0.0,0.0
7950.341975700072,7950.341975700072,0.13083890238604162,0.0
7950.346975700072,7950.346975700072,0.0,0.0
7950.351975700072,7950.351975700072,0.0,0.0
7950.356975700072,7950.356975700072,0.0,0.0
7950.361975700072,7950.361975700072,0.0,0.0
7950.3669757000725,7950.3669757000725,0.0,0.0
7950.371975700073,7950.371975700073,0.0,0.0
7950.376975700073,7950.376975700073,0.0,0.0
7950.381975700073,7950.381975700073,0.0,0.0
7950.386975700073,7950.386975700073,0.0,0.0
7950.391975700073,7950.391975700073,0.0,0.0
7950.396975700073,7950.396975700073,0.0,0.0
7950.401975700073,7950.401975700073,0.0,0.0
7950.406975700073,7950.406975700073,0.0,0.0
7950.4119757000735,7950.4119757000735,0.0,0.0
7950.416975700074,7950.416975700074,0.0,0.0
7950.421975700074,7950.421975700074,0.12168490197313386,0.0
7950.426975700074,7950.426975700074,0.0,0.0
7950.431975700074,7950.431975700074,0.0,0.0
7950.436975700074,7950.436975700074,0.0,0.0
7950.441975700074,7950.441975700074,0.0,0.0
7950.446975700074,7950.446975700074,0.0,0.0
7950.451975700074,7950.451975700074,0.0,0.0
7950.4569757000745,7950.4569757000745,0.0,0.0
7950.461975700075,7950.461975700075,0.0,0.0
7950.466975700075,7950.466975700075,0.0,0.0
7950.471975700075,7950.471975700075,0.0,0.0
7950.476975700075,7950.476975700075,0.0,0.0
7950.481975700075,7950.481975700075,0.0,0.0
7950.486975700075,7950.486975700075,0.0,0.0
7950.491975700075,7950.491975700075,0.0,0.0
7950.496975700075,7950.496975700075,0.0,0.0
7950.5019757000755,7950.5019757000755,0.0936336004482666,0.0
7950.506975700076,7950.506975700076,0.0,0.0
7950.511975700076,7950.511975700076,0.0,0.0
7950.516975700076,7950.516975700076,0.0,0.0
7950.521975700076,7950.521975700076,0.0,0.0
7950.526975700076,7950.526975700076,0.0,0.0
7950.531975700076,7950.531975700076,0.0,0.0
7950.536975700076,7950.536975700076,0.0,0.0
7950.541975700076,7950.541975700076,0.0,0.0
7950.5469757000765,7950.5469757000765,0.0,0.0
7950.551975700077,7950.551975700077,0.0,0.0
7950.556975700077,7950.556975700077,-0.09550827733414649,0.0
7950.561975700077,7950.561975700077,0.0,0.0
7950.566975700077,7950.566975700077,0.0,0.0
7950.571975700077,7950.571975700077,0.0,0.0
7950.576975700077,7950.576975700077,0.0,0.0
7950.581975700077,7950.581975700077,0.0,0.0
7950.586975700077,7950.586975700077,0.0,0.0
7950.5919757000775,7950.5919757000775,0.0,0.0
7950.596975700078,7950.596975700078,0.0,0.0
7950.601975700078,7950.601975700078,0.0,0.0
7950.606975700078,7950.606975700078,0.0,0.0
7950.611975700078,7950.611975700078,0.0,0.0
7950.616975700078,7950.616975700078,0.0,0.0
7950.621975700078,7950.621975700078,0.0,0.0
7950.626975700078,7950.626975700078,0.0,0.0
7950.631975700078,7950.631975700078,0.0,0.0
7950.636975700078,7950.636975700078,-0.01547783991493571,0.0
7950.641975700079,7950.641975700079,0.0,0.0
7950.646975700079,7950.646975700079,0.0,0.0
7950.651975700079,7950.651975700079,0.0,0.0
7950.656975700079,7950.656975700079,0.0,0.0
7950.661975700079,7950.661975700079,0.0,0.0
7950.666975700079,7950.666975700079,0.0,0.0
7950.671975700079,7950.671975700079,0.0,0.0
7950.676975700079,7950.676975700079,0.0,0.0
7950.681975700079,7950.681975700079,0.0,0.0
7950.6869757000795,7950.6869757000795,0.0,0.0
7950.69197570008,7950.69197570008,-0.12208000184851765,0.0
7950.69697570008,7950.69697570008,0.0,0.0
7950.70197570008,7950.70197570008,0.0,0.0
7950.70697570008,7950.70697570008,0.0,0.0
7950.71197570008,7950.71197570008,0.0,0.0
7950.71697570008,7950.71697570008,0.028782664238038033,0.0
7950.72197570008,7950.72197570008,0.0,0.0
7950.72697570008,7950.72697570008,0.0,0.0
7950.7319757000805,7950.7319757000805,0.0,0.0
7950.736975700081,7950.736975700081,0.0,0.0
7950.741975700081,7950.741975700081,0.0,0.0
7950.746975700081,7950.746975700081,0.0,0.0
7950.751975700081,7950.751975700081,0.0,0.0
7950.756975700081,7950.756975700081,0.0,0.0
7950.761975700081,7950.761975700081,0.0,0.0
7950.766975700081,7950.766975700081,0.0,0.0
7950.771975700081,7950.771975700081,-0.12184213704578961,0.0
7950.7769757000815,7950.7769757000815,0.0,0.0
7950.781975700082,7950.781975700082,0.0,0.0
7950.786975700082,7950.786975700082,0.0,0.0
7950.791975700082,7950.791975700082,0.0,0.0
7950.796975700082,7950.796975700082,0.0,0.0
7950.801975700082,7950.801975700082,0.0,0.0
7950.806975700082,7950.806975700082,0.0,0.0
7950.811975700082,7950.811975700082,0.0,0.0
7950.816975700082,7950.816975700082,0.0,0.0
7950.8219757000825,7950.8219757000825,0.0,0.0
7950.826975700083,7950.826975700083,0.048286359032327725,0.0
7950.831975700083,7950.831975700083,0.0,0.0
7950.836975700083,7950.836975700083,0.0,0.0
7950.841975700083,7950.841975700083,0.0,0.0
7950.846975700083,7950.846975700083,0.0,0.0
7950.851975700083,7950.851975700083,0.0,0.0
7950.856975700083,7950.856975700083,0.0,0.0
7950.861975700083,7950.861975700083,0.0,0.0
7950.8669757000835,7950.8669757000835,0.0,0.0
7950.871975700084,7950.871975700084,0.0,0.0
7950.876975700084,7950.876975700084,0.0,0.0
7950.881975700084,7950.881975700084,0.15706760235562933,0.0
7950.886975700084,7950.886975700084,0.0,0.0
7950.891975700084,7950.891975700084,0.0,0.0
7950.896975700084,7950.896975700084,0.0,0.0
7950.901975700084,7950.901975700084,0.0,0.0
7950.906975700084,7950.906975700084,0.02691431196976221,0.0
7950.911975700084,7950.911975700084,0.0,0.0
7950.916975700085,7950.916975700085,0.0,0.0
7950.921975700085,7950.921975700085,0.0,0.0
7950.926975700085,7950.926975700085,0.0,0.0
7950.931975700085,7950.931975700085,-0.09165791348289841,0.0
7950.936975700085,7950.936975700085,0.0,0.0
7950.941975700085,7950.941975700085,0.0,0.0
7950.946975700085,7950.946975700085,0.0,0.0
7950.951975700085,7950.951975700085,0.0,0.0
7950.956975700085,7950.956975700085,0.0,0.0
7950.9619757000855,7950.9619757000855,0.1860276157035084,0.0
7950.966975700086,7950.966975700086,0.0,0.0
7950.971975700086,7950.971975700086,0.0,0.0
7950.976975700086,7950.976975700086,0.0,0.0
7950.981975700086,7950.981975700086,0.0,0.0
7950.986975700086,7950.986975700086,0.0016777458507158689,0.0
7950.991975700086,7950.991975700086,0.0,0.0
7950.996975700086,7950.996975700086,0.0,0.0
7951.001975700086,7951.001975700086,0.0,0.0
7951.0069757000865,7951.0069757000865,0.0,0.0
7951.011975700087,7951.011975700087,0.0,0.0
7951.016975700087,7951.016975700087,0.0,0.0
7951.021975700087,7951.021975700087,0.0,0.0
7951.026975700087,7951.026975700087,0.0,0.0
7951.031975700087,7951.031975700087,0.0,0.0
7951.036975700087,7951.036975700087,0.0,0.0
7951.041975700087,7951.041975700087,0.060488572538312246,0.0
7951.046975700087,7951.046975700087,0.0,0.0
7951.0519757000875,7951.0519757000875,0.0,0.0
7951.056975700088,7951.056975700088,0.0,0.0
7951.061975700088,7951.061975700088,0.0,0.0
7951.066975700088,7951.066975700088,0.0,0.0
7951.071975700088,7951.071975700088,0.0,0.0
7951.076975700088,7951.076975700088,0.0,0.0
7951.081975700088,7951.081975700088,0.0,0.0
7951.086975700088,7951.086975700088,0.0,0.0
7951.091975700088,7951.091975700088,0.0,0.0
7951.0969757000885,7951.0969757000885,-0.04033302658368901,0.0
7951.101975700089,7951.101975700089,0.0,0.0
7951.106975700089,7951.106975700089,0.0,0.0
7951.111975700089,7951.111975700089,0.0,0.0
7951.116975700089,7951.116975700089,0.0,0.0
7951.121975700089,7951.121975700089,0.0,0.0
7951.126975700089,7951.126975700089,0.0,0.0
7951.131975700089,7951.131975700089,0.0,0.0
7951.136975700089,7951.136975700089,0.0,0.0
7951.1419757000895,7951.1419757000895,0.0,0.0
7951.14697570009,7951.14697570009,0.0,0.0
7951.15197570009,7951.15197570009,0.0,0.0
7951.15697570009,7951.15697570009,0.0,0.0
7951.16197570009,7951.16197570009,0.0,0.0
7951.16697570009,7951.16697570009,0.0,0.0
7951.17197570009,7951.17197570009,0.0,0.0
7951.17697570009,7951.17697570009,0.06120315911683526,0.0
7951.18197570009,7951.18197570009,0.0,0.0
7951.18697570009,7951.18697570009,0.0,0.0
7951.191975700091,7951.191975700091,0.0,0.0
7951.196975700091,7951.196975700091,0.0,0.0
7951.201975700091,7951.201975700091,0.0,0.0
7951.206975700091,7951.206975700091,0.0,0.0
7951.211975700091,7951.211975700091,0.0,0.0
7951.216975700091,7951.216975700091,0.0,0.0
7951.221975700091,7951.221975700091,0.0,0.0
7951.226975700091,7951.226975700091,0.0,0.0
7951.231975700091,7951.231975700091,0.0,0.0
7951.2369757000915,7951.2369757000915,0.0,0.0
7951.241975700092,7951.241975700092,0.0,0.0
7951.246975700092,7951.246975700092,0.0,0.0
7951.251975700092,7951.251975700092,0.0,0.0
7951.256975700092,7951.256975700092,0.008799546599436592,0.0
7951.261975700092,7951.261975700092,0.0,0.0
7951.266975700092,7951.266975700092,0.0,0.0
7951.271975700092,7951.271975700092,0.0,0.0
7951.276975700092,7951.276975700092,0.0,0.0
7951.2819757000925,7951.2819757000925,0.0,0.0
7951.286975700093,7951.286975700093,0.0,0.0
7951.291975700093,7951.291975700093,0.0,0.0
7951.296975700093,7951.296975700093,0.0,0.0
7951.301975700093,7951.301975700093,0.0,0.0
7951.306975700093,7951.306975700093,0.0,0.0
7951.311975700093,7951.311975700093,-0.1470464906119651,0.0
7951.316975700093,7951.316975700093,0.0,0.0
7951.321975700093,7951.321975700093,0.0,0.0
7951.3269757000935,7951.3269757000935,0.0,0.0
7951.331975700094,7951.331975700094,0.0,0.0
7951.336975700094,7951.336975700094,0.0,0.0
7951.341975700094,7951.341975700094,0.0,0.0
7951.346975700094,7951.346975700094,0.0,0.0
7951.351975700094,7951.351975700094,0.0,0.0
7951.356975700094,7951.356975700094,0.0,0.0
7951.361975700094,7951.361975700094,0.0,0.0
7951.366975700094,7951.366975700094,0.02997121772796885,0.0
7951.3719757000945,7951.3719757000945,0.0,0.0
7951.376975700095,7951.376975700095,0.0,0.0
7951.381975700095,7951.381975700095,0.0,0.0
7951.386975700095,7951.386975700095,0.0,0.0
7951.391975700095,7951.391975700095,0.0,0.0
7951.396975700095,7951.396975700095,0.0,0.0
7951.401975700095,7951.401975700095,0.0,0.0
7951.406975700095,7951.406975700095,0.0,0.0
7951.411975700095,7951.411975700095,0.0,0.0
7951.4169757000955,7951.4169757000955,0.0,0.0
7951.421975700096,7951.421975700096,0.0,0.0
7951.426975700096,7951.426975700096,0.0,0.0
7951.431975700096,7951.431975700096,0.0,0.0
7951.436975700096,7951.436975700096,0.0,0.0
7951.441975700096,7951.441975700096,0.0,0.0
7951.446975700096,7951.446975700096,0.01449749686159765,0.0
7951.451975700096,7951.451975700096,0.0,0.0
7951.456975700096,7951.456975700096,0.0,0.0
7951.461975700096,7951.461975700096,0.0,0.0
7951.466975700097,7951.466975700097,0.0,0.0
7951.471975700097,7951.471975700097,0.0,0.0
7951.476975700097,7951.476975700097,0.0,0.0
7951.481975700097,7951.481975700097,0.0,0.0
7951.486975700097,7951.486975700097,0.0,0.0
7951.491975700097,7951.491975700097,0.0,0.0
7951.496975700097,7951.496975700097,0.0,0.0
7951.501975700097,7951.501975700097,0.0,0.0
7951.506975700097,7951.506975700097,0.0,0.0
7951.5119757000975,7951.5119757000975,0.0,0.0
7951.516975700098,7951.516975700098,0.0,0.0
7951.521975700098,7951.521975700098,0.0,0.0
7951.526975700098,7951.526975700098,0.0,0.0
7951.531975700098,7951.531975700098,0.0,0.0
7951.536975700098,7951.536975700098,0.0,0.0
7951.541975700098,7951.541975700098,0.0,0.0
7951.546975700098,7951.546975700098,0.0,0.0
7951.551975700098,7951.551975700098,0.0,0.0
7951.5569757000985,7951.5569757000985,0.0,0.0
7951.561975700099,7951.561975700099,0.0,0.0
7951.566975700099,7951.566975700099,0.0,0.0
7951.571975700099,7951.571975700099,0.0,0.0
7951.576975700099,7951.576975700099,0.0,0.0
7951.581975700099,7951.581975700099,0.17290496320157347,0.0
7951.586975700099,7951.586975700099,0.0,0.0
7951.591975700099,7951.591975700099,0.0,0.0
7951.596975700099,7951.596975700099,0.0,0.0
7951.6019757000995,7951.6019757000995,0.0,0.0
7951.6069757001,7951.6069757001,0.0,0.0
7951.6119757001,7951.6119757001,0.0,0.0
7951.6169757001,7951.6169757001,0.0,0.0
7951.6219757001,7951.6219757001,0.0,0.0
7951.6269757001,7951.6269757001,0.0,0.0
7951.6319757001,7951.6319757001,0.0,0.0
7951.6369757001,7951.6369757001,0.0,0.0
7951.6419757001,7951.6419757001,0.0,0.0
7951.6469757001005,7951.6469757001005,0.0,0.0
7951.651975700101,7951.651975700101,0.0,0.0
7951.656975700101,7951.656975700101,0.0,0.0
7951.661975700101,7951.661975700101,0.009282517140661006,0.0
7951.666975700101,7951.666975700101,0.0,0.0
7951.671975700101,7951.671975700101,0.0,0.0
7951.676975700101,7951.676975700101,0.0,0.0
7951.681975700101,7951.681975700101,0.0,0.0
7951.686975700101,7951.686975700101,0.0,0.0
7951.6919757001015,7951.6919757001015,0.0,0.0
7951.696975700102,7951.696975700102,0.0,0.0
7951.701975700102,7951.701975700102,0.0,0.0
7951.706975700102,7951.706975700102,0.0,0.0
7951.711975700102,7951.711975700102,0.0,0.0
7951.716975700102,7951.716975700102,0.0014476707098990682,0.0
7951.721975700102,7951.721975700102,0.0,0.0
7951.726975700102,7951.726975700102,0.0,0.0
7951.731975700102,7951.731975700102,0.0,0.0
7951.736975700102,7951.736975700102,0.0,0.0
7951.741975700103,7951.741975700103,0.0,0.0
7951.746975700103,7951.746975700103,0.0,0.0
7951.751975700103,7951.751975700103,0.0,0.0
7951.756975700103,7951.756975700103,0.0,0.0
7951.761975700103,7951.761975700103,0.0,0.0
7951.766975700103,7951.766975700103,0.0,0.0
7951.771975700103,7951.771975700103,0.0,0.0
7951.776975700103,7951.776975700103,0.0,0.0
7951.781975700103,7951.781975700103,0.0,0.0
7951.7869757001035,7951.7869757001035,0.0,0.0
7951.791975700104,7951.791975700104,0.0,0.0
7951.796975700104,7951.796975700104,0.257205991005091,0.0
7951.801975700104,7951.801975700104,0.0,0.0
7951.806975700104,7951.806975700104,0.0,0.0
7951.811975700104,7951.811975700104,0.0,0.0
7951.816975700104,7951.816975700104,0.0,0.0
7951.821975700104,7951.821975700104,0.0,0.0
7951.826975700104,7951.826975700104,0.0,0.0
7951.8319757001045,7951.8319757001045,0.0,0.0
7951.836975700105,7951.836975700105,0.0,0.0
7951.841975700105,7951.841975700105,0.0,0.0
7951.846975700105,7951.846975700105,0.0,0.0
7951.851975700105,7951.851975700105,-0.17931745848094752,0.0
7951.856975700105,7951.856975700105,0.0,0.0
7951.861975700105,7951.861975700105,0.0,0.0
7951.866975700105,7951.866975700105,0.0,0.0
7951.871975700105,7951.871975700105,0.0,0.0
7951.8769757001055,7951.8769757001055,0.0,0.0
7951.881975700106,7951.881975700106,0.0,0.0
7951.886975700106,7951.886975700106,0.0,0.0
7951.891975700106,7951.891975700106,0.0,0.0
7951.896975700106,7951.896975700106,0.0,0.0
7951.901975700106,7951.901975700106,0.0,0.0
7951.906975700106,7951.906975700106,0.011507465958677009,0.0
7951.911975700106,7951.911975700106,0.0,0.0
7951.916975700106,7951.916975700106,0.0,0.0
7951.9219757001065,7951.9219757001065,0.0,0.0
7951.926975700107,7951.926975700107,0.0,0.0
7951.931975700107,7951.931975700107,0.0,0.0
7951.936975700107,7951.936975700107,0.0,0.0
7951.941975700107,7951.941975700107,0.0,0.0
7951.946975700107,7951.946975700107,0.0,0.0
7951.951975700107,7951.951975700107,0.0,0.0
7951.956975700107,7951.956975700107,0.0,0.0
7951.961975700107,7951.961975700107,0.0,0.0
7951.9669757001075,7951.9669757001075,0.0,0.0
7951.971975700108,7951.971975700108,0.0,0.0
7951.976975700108,7951.976975700108,0.0,0.0
7951.981975700108,7951.981975700108,0.0,0.0
7951.986975700108,7951.986975700108,-0.0038915327574176955,0.0
7951.991975700108,7951.991975700108,0.0,0.0
7951.996975700108,7951.996975700108,0.0,0.0
7952.001975700108,7952.001975700108,0.0,0.0
7952.006975700108,7952.006975700108,0.0,0.0
7952.011975700108,7952.011975700108,0.0,0.0
7952.016975700109,7952.016975700109,0.0,0.0
7952.021975700109,7952.021975700109,0.0,0.0
7952.026975700109,7952.026975700109,0.0,0.0
7952.031975700109,7952.031975700109,0.0,0.0
7952.036975700109,7952.036975700109,0.0,0.0
7952.041975700109,7952.041975700109,0.061244682452654464,0.0
7952.046975700109,7952.046975700109,0.0,0.0
7952.051975700109,7952.051975700109,0.0,0.0
7952.056975700109,7952.056975700109,0.0,0.0
7952.0619757001095,7952.0619757001095,0.0,0.0
7952.06697570011,7952.06697570011,-0.052850207497727314,0.0
7952.07197570011,7952.07197570011,0.0,0.0
7952.07697570011,7952.07697570011,0.0,0.0
7952.08197570011,7952.08197570011,0.0,0.0
7952.08697570011,7952.08697570011,0.0,0.0
7952.09197570011,7952.09197570011,0.0,0.0
7952.09697570011,7952.09697570011,0.0,0.0
7952.10197570011,7952.10197570011,0.0,0.0
7952.1069757001105,7952.1069757001105,0.0,0.0
7952.111975700111,7952.111975700111,0.0,0.0
7952.116975700111,7952.116975700111,0.0,0.0
7952.121975700111,7952.121975700111,0.1038442204357665,0.0
7952.126975700111,7952.126975700111,0.0,0.0
7952.131975700111,7952.131975700111,0.0,0.0
7952.136975700111,7952.136975700111,0.0,0.0
7952.141975700111,7952.141975700111,0.0,0.0
7952.146975700111,7952.146975700111,-0.019624076453664485,0.0
7952.1519757001115,7952.1519757001115,0.0,0.0
7952.156975700112,7952.156975700112,0.0,0.0
7952.161975700112,7952.161975700112,0.0,0.0
7952.166975700112,7952.166975700112,0.0,0.0
7952.171975700112,7952.171975700112,0.0,0.0
7952.176975700112,7952.176975700112,0.052381216813347065,0.0
7952.181975700112,7952.181975700112,0.0,0.0
7952.186975700112,7952.186975700112,0.0,0.0
7952.191975700112,7952.191975700112,0.0,0.0
7952.1969757001125,7952.1969757001125,0.0,0.0
7952.201975700113,7952.201975700113,0.011417724879732328,0.0
7952.206975700113,7952.206975700113,0.0,0.0
7952.211975700113,7952.211975700113,0.0,0.0
7952.216975700113,7952.216975700113,0.0,0.0
7952.221975700113,7952.221975700113,0.0,0.0
7952.226975700113,7952.226975700113,0.0,0.0
7952.231975700113,7952.231975700113,0.0,0.0
7952.236975700113,7952.236975700113,0.0,0.0
7952.2419757001135,7952.2419757001135,0.0,0.0
7952.246975700114,7952.246975700114,0.0,0.0
7952.251975700114,7952.251975700114,0.0,0.0
7952.256975700114,7952.256975700114,0.29909688584094984,0.0
7952.261975700114,7952.261975700114,0.0,0.0
7952.266975700114,7952.266975700114,0.0,0.0
7952.271975700114,7952.271975700114,0.0,0.0
7952.276975700114,7952.276975700114,0.0,0.0
7952.281975700114,7952.281975700114,0.0,0.0
7952.286975700114,7952.286975700114,0.0,0.0
7952.291975700115,7952.291975700115,0.0,0.0
7952.296975700115,7952.296975700115,0.0,0.0
7952.301975700115,7952.301975700115,0.0,0.0
7952.306975700115,7952.306975700115,0.0,0.0
7952.311975700115,7952.311975700115,-0.12130854175145445,0.0
7952.316975700115,7952.316975700115,0.0,0.0
7952.321975700115,7952.321975700115,0.0,0.0
7952.326975700115,7952.326975700115,0.0,0.0
7952.331975700115,7952.331975700115,0.0,0.0
7952.3369757001155,7952.3369757001155,0.08812318823758335,0.0
7952.341975700116,7952.341975700116,0.0,0.0
7952.346975700116,7952.346975700116,0.0,0.0
7952.351975700116,7952.351975700116,0.0,0.0
7952.356975700116,7952.356975700116,0.0,0.0
7952.361975700116,7952.361975700116,0.0,0.0
7952.366975700116,7952.366975700116,0.0,0.0
7952.371975700116,7952.371975700116,0.0,0.0
7952.376975700116,7952.376975700116,0.0,0.0
7952.3819757001165,7952.3819757001165,0.0,0.0
7952.386975700117,7952.386975700117,0.0,0.0
7952.391975700117,7952.391975700117,-0.08267598257495543,0.0
7952.396975700117,7952.396975700117,0.0,0.0
7952.401975700117,7952.401975700117,0.0,0.0
7952.406975700117,7952.406975700117,0.0,0.0
7952.411975700117,7952.411975700117,0.0,0.0
7952.416975700117,7952.416975700117,0.0,0.0
7952.421975700117,7952.421975700117,0.0,0.0
7952.4269757001175,7952.4269757001175,0.0,0.0
7952.431975700118,7952.431975700118,0.0,0.0
7952.436975700118,7952.436975700118,0.0,0.0
7952.441975700118,7952.441975700118,0.0,0.0
7952.446975700118,7952.446975700118,-0.0015103928592157944,0.0
7952.451975700118,7952.451975700118,0.0,0.0
7952.456975700118,7952.456975700118,0.0,0.0
7952.461975700118,7952.461975700118,0.0,0.0
7952.466975700118,7952.466975700118,0.0,0.0
7952.4719757001185,7952.4719757001185,0.0,0.0
7952.476975700119,7952.476975700119,0.0,0.0
7952.481975700119,7952.481975700119,0.0,0.0
7952.486975700119,7952.486975700119,0.0,0.0
7952.491975700119,7952.491975700119,0.0,0.0
7952.496975700119,7952.496975700119,0.0,0.0
7952.501975700119,7952.501975700119,0.0,0.0
7952.506975700119,7952.506975700119,0.0,0.0
7952.511975700119,7952.511975700119,0.0,0.0
7952.5169757001195,7952.5169757001195,0.0,0.0
7952.52197570012,7952.52197570012,0.0,0.0
7952.52697570012,7952.52697570012,-0.02926352100224482,0.0
7952.53197570012,7952.53197570012,0.0,0.0
7952.53697570012,7952.53697570012,0.0,0.0
7952.54197570012,7952.54197570012,0.0,0.0
7952.54697570012,7952.54697570012,0.0,0.0
7952.55197570012,7952.55197570012,0.0,0.0
7952.55697570012,7952.55697570012,0.0,0.0
7952.5619757001205,7952.5619757001205,0.0,0.0
7952.566975700121,7952.566975700121,0.0,0.0
7952.571975700121,7952.571975700121,0.0,0.0
7952.576975700121,7952.576975700121,0.0,0.0
7952.581975700121,7952.581975700121,0.0,0.0
7952.586975700121,7952.586975700121,0.0,0.0
7952.591975700121,7952.591975700121,0.0,0.0
7952.596975700121,7952.596975700121,0.0,0.0
7952.601975700121,7952.601975700121,0.0,0.0
7952.606975700121,7952.606975700121,0.0,0.0
7952.611975700122,7952.611975700122,0.0,0.0
7952.616975700122,7952.616975700122,0.0,0.0
7952.621975700122,7952.621975700122,0.0,0.0
7952.626975700122,7952.626975700122,0.0,0.0
7952.631975700122,7952.631975700122,0.0,0.0
7952.636975700122,7952.636975700122,0.0,0.0
7952.641975700122,7952.641975700122,0.0,0.0
7952.646975700122,7952.646975700122,0.0,0.0
7952.651975700122,7952.651975700122,0.0,0.0
7952.6569757001225,7952.6569757001225,0.0,0.0
7952.661975700123,7952.661975700123,0.03113865301586992,0.0
7952.666975700123,7952.666975700123,0.0,0.0
7952.671975700123,7952.671975700123,0.0,0.0
7952.676975700123,7952.676975700123,0.0,0.0
7952.681975700123,7952.681975700123,0.0,0.0
7952.686975700123,7952.686975700123,0.0,0.0
7952.691975700123,7952.691975700123,0.0,0.0
7952.696975700123,7952.696975700123,0.0,0.0
7952.7019757001235,7952.7019757001235,0.0,0.0
7952.706975700124,7952.706975700124,0.0,0.0
7952.711975700124,7952.711975700124,0.0,0.0
7952.716975700124,7952.716975700124,0.25135463619792836,0.0
7952.721975700124,7952.721975700124,0.0,0.0
7952.726975700124,7952.726975700124,0.0,0.0
7952.731975700124,7952.731975700124,0.0,0.0
7952.736975700124,7952.736975700124,0.0,0.0
7952.741975700124,7952.741975700124,0.014880802488339345,0.0
7952.7469757001245,7952.7469757001245,0.0,0.0
7952.751975700125,7952.751975700125,0.0,0.0
7952.756975700125,7952.756975700125,0.0,0.0
7952.761975700125,7952.761975700125,0.0,0.0
7952.766975700125,7952.766975700125,0.0,0.0
7952.771975700125,7952.771975700125,0.0,0.0
7952.776975700125,7952.776975700125,0.0,0.0
7952.781975700125,7952.781975700125,0.0,0.0
7952.786975700125,7952.786975700125,0.0,0.0
7952.7919757001255,7952.7919757001255,0.0,0.0
7952.796975700126,7952.796975700126,0.1434518377325092,0.0
7952.801975700126,7952.801975700126,0.0,0.0
7952.806975700126,7952.806975700126,0.0,0.0
7952.811975700126,7952.811975700126,0.0,0.0
7952.816975700126,7952.816975700126,0.0,0.0
7952.821975700126,7952.821975700126,0.0,0.0
7952.826975700126,7952.826975700126,0.0,0.0
7952.831975700126,7952.831975700126,0.0,0.0
7952.8369757001265,7952.8369757001265,0.0,0.0
7952.841975700127,7952.841975700127,0.0,0.0
7952.846975700127,7952.846975700127,0.0,0.0
7952.851975700127,7952.851975700127,-0.09307528833916537,0.0
7952.856975700127,7952.856975700127,0.0,0.0
7952.861975700127,7952.861975700127,0.0,0.0
7952.866975700127,7952.866975700127,0.0,0.0
7952.871975700127,7952.871975700127,0.0,0.0
7952.876975700127,7952.876975700127,0.07646017711011514,0.0
7952.881975700127,7952.881975700127,0.0,0.0
7952.886975700128,7952.886975700128,0.0,0.0
7952.891975700128,7952.891975700128,0.0,0.0
7952.896975700128,7952.896975700128,0.0,0.0
7952.901975700128,7952.901975700128,0.0,0.0
7952.906975700128,7952.906975700128,0.0,0.0
7952.911975700128,7952.911975700128,0.0,0.0
7952.916975700128,7952.916975700128,0.0,0.0
7952.921975700128,7952.921975700128,0.0,0.0
7952.926975700128,7952.926975700128,0.0,0.0
7952.9319757001285,7952.9319757001285,0.0,0.0
7952.936975700129,7952.936975700129,0.0,0.0
7952.941975700129,7952.941975700129,0.0,0.0
7952.946975700129,7952.946975700129,0.0,0.0
7952.951975700129,7952.951975700129,0.0,0.0
7952.956975700129,7952.956975700129,0.09935077657209294,0.0
7952.961975700129,7952.961975700129,0.0,0.0
7952.966975700129,7952.966975700129,0.0,0.0
7952.971975700129,7952.971975700129,0.0,0.0
7952.9769757001295,7952.9769757001295,0.0,0.0
7952.98197570013,7952.98197570013,0.0,0.0
7952.98697570013,7952.98697570013,-0.053294077199144974,0.0
7952.99197570013,7952.99197570013,0.0,0.0
7952.99697570013,7952.99697570013,0.0,0.0
7953.00197570013,7953.00197570013,0.0,0.0
7953.00697570013,7953.00697570013,0.0,0.0
7953.01197570013,7953.01197570013,0.0,0.0
7953.01697570013,7953.01697570013,0.0,0.0
7953.0219757001305,7953.0219757001305,0.0,0.0
7953.026975700131,7953.026975700131,0.0,0.0
7953.031975700131,7953.031975700131,0.0,0.0
7953.036975700131,7953.036975700131,0.0,0.0
7953.041975700131,7953.041975700131,0.0,0.0
7953.046975700131,7953.046975700131,0.0,0.0
7953.051975700131,7953.051975700131,0.0,0.0
7953.056975700131,7953.056975700131,0.0,0.0
7953.061975700131,7953.061975700131,0.0,0.0
7953.0669757001315,7953.0669757001315,-0.18147471398262643,0.0
7953.071975700132,7953.071975700132,0.0,0.0
7953.076975700132,7953.076975700132,0.0,0.0
7953.081975700132,7953.081975700132,0.0,0.0
7953.086975700132,7953.086975700132,0.0,0.0
7953.091975700132,7953.091975700132,0.0,0.0
7953.096975700132,7953.096975700132,0.0,0.0
7953.101975700132,7953.101975700132,0.0,0.0
7953.106975700132,7953.106975700132,0.0,0.0
7953.1119757001325,7953.1119757001325,0.0,0.0
7953.116975700133,7953.116975700133,0.0,0.0
7953.121975700133,7953.121975700133,0.0038504866981512176,0.0
7953.126975700133,7953.126975700133,0.0,0.0
7953.131975700133,7953.131975700133,0.0,0.0
7953.136975700133,7953.136975700133,0.0,0.0
7953.141975700133,7953.141975700133,0.0,0.0
7953.146975700133,7953.146975700133,-0.07019136159953746,0.0
7953.151975700133,7953.151975700133,0.0,0.0
7953.156975700133,7953.156975700133,0.0,0.0
7953.161975700134,7953.161975700134,0.0,0.0
7953.166975700134,7953.166975700134,0.0,0.0
7953.171975700134,7953.171975700134,0.0,0.0
7953.176975700134,7953.176975700134,0.0,0.0
7953.181975700134,7953.181975700134,0.0,0.0
7953.186975700134,7953.186975700134,0.0,0.0
7953.191975700134,7953.191975700134,0.0,0.0
7953.196975700134,7953.196975700134,0.0,0.0
7953.201975700134,7953.201975700134,0.0,0.0
7953.2069757001345,7953.2069757001345,0.0,0.0
7953.211975700135,7953.211975700135,0.0,0.0
7953.216975700135,7953.216975700135,0.0,0.0
7953.221975700135,7953.221975700135,0.0,0.0
7953.226975700135,7953.226975700135,0.0,0.0
7953.231975700135,7953.231975700135,0.0,0.0
7953.236975700135,7953.236975700135,0.0,0.0
7953.241975700135,7953.241975700135,0.0,0.0
7953.246975700135,7953.246975700135,0.0,0.0
7953.2519757001355,7953.2519757001355,0.0,0.0
7953.256975700136,7953.256975700136,0.03983523644808923,0.0
7953.261975700136,7953.261975700136,0.0,0.0
7953.266975700136,7953.266975700136,0.0,0.0
7953.271975700136,7953.271975700136,0.0,0.0
7953.276975700136,7953.276975700136,0.0,0.0
7953.281975700136,7953.281975700136,0.0,0.0
7953.286975700136,7953.286975700136,0.0,0.0
7953.291975700136,7953.291975700136,0.0,0.0
7953.2969757001365,7953.2969757001365,0.0,0.0
7953.301975700137,7953.301975700137,0.0,0.0
7953.306975700137,7953.306975700137,0.0,0.0
7953.311975700137,7953.311975700137,0.0,0.0
7953.316975700137,7953.316975700137,0.0,0.0
7953.321975700137,7953.321975700137,0.0,0.0
7953.326975700137,7953.326975700137,0.0,0.0
7953.331975700137,7953.331975700137,0.0,0.0
7953.336975700137,7953.336975700137,0.15939004048049346,0.0
7953.3419757001375,7953.3419757001375,0.0,0.0
7953.346975700138,7953.346975700138,0.0,0.0
7953.351975700138,7953.351975700138,0.0,0.0
7953.356975700138,7953.356975700138,0.0,0.0
7953.361975700138,7953.361975700138,0.0006983636653540327,0.0
7953.366975700138,7953.366975700138,0.0,0.0
7953.371975700138,7953.371975700138,0.0,0.0
7953.376975700138,7953.376975700138,0.0,0.0
7953.381975700138,7953.381975700138,0.0,0.0
7953.3869757001385,7953.3869757001385,0.0,0.0
7953.391975700139,7953.391975700139,-0.06478424133206279,0.0
7953.396975700139,7953.396975700139,0.0,0.0
7953.401975700139,7953.401975700139,0.0,0.0
7953.406975700139,7953.406975700139,0.0,0.0
7953.411975700139,7953.411975700139,0.0,0.0
7953.416975700139,7953.416975700139,0.041267257425268766,0.0
7953.421975700139,7953.421975700139,0.0,0.0
7953.426975700139,7953.426975700139,0.0,0.0
7953.431975700139,7953.431975700139,0.0,0.0
7953.43697570014,7953.43697570014,0.0,0.0
7953.44197570014,7953.44197570014,0.0,0.0
7953.44697570014,7953.44697570014,0.0,0.0
7953.45197570014,7953.45197570014,0.0,0.0
7953.45697570014,7953.45697570014,0.0,0.0
7953.46197570014,7953.46197570014,0.0,0.0
7953.46697570014,7953.46697570014,0.0,0.0
7953.47197570014,7953.47197570014,0.007606067077141844,0.0
7953.47697570014,7953.47697570014,0.0,0.0
7953.4819757001405,7953.4819757001405,0.0,0.0
7953.486975700141,7953.486975700141,0.0,0.0
7953.491975700141,7953.491975700141,0.0,0.0
7953.496975700141,7953.496975700141,0.0,0.0
7953.501975700141,7953.501975700141,0.0,0.0
7953.506975700141,7953.506975700141,0.0,0.0
7953.511975700141,7953.511975700141,0.0,0.0
7953.516975700141,7953.516975700141,0.0,0.0
7953.521975700141,7953.521975700141,0.0,0.0
7953.5269757001415,7953.5269757001415,0.0,0.0
7953.531975700142,7953.531975700142,0.0,0.0
7953.536975700142,7953.536975700142,0.0,0.0
7953.541975700142,7953.541975700142,0.0,0.0
7953.546975700142,7953.546975700142,0.0,0.0
7953.551975700142,7953.551975700142,0.08313711563298222,0.0
7953.556975700142,7953.556975700142,0.0,0.0
7953.561975700142,7953.561975700142,0.0,0.0
7953.566975700142,7953.566975700142,0.0,0.0
7953.5719757001425,7953.5719757001425,0.0,0.0
7953.576975700143,7953.576975700143,0.0,0.0
7953.581975700143,7953.581975700143,0.0,0.0
7953.586975700143,7953.586975700143,0.0,0.0
7953.591975700143,7953.591975700143,0.0,0.0
7953.596975700143,7953.596975700143,0.0,0.0
7953.601975700143,7953.601975700143,0.0,0.0
7953.606975700143,7953.606975700143,-0.110428826161974,0.0
7953.611975700143,7953.611975700143,0.0,0.0
7953.6169757001435,7953.6169757001435,0.0,0.0
7953.621975700144,7953.621975700144,0.0,0.0
7953.626975700144,7953.626975700144,0.0,0.0
7953.631975700144,7953.631975700144,0.0,0.0
7953.636975700144,7953.636975700144,0.0,0.0
7953.641975700144,7953.641975700144,0.0,0.0
7953.646975700144,7953.646975700144,0.0,0.0
7953.651975700144,7953.651975700144,0.0,0.0
7953.656975700144,7953.656975700144,0.0,0.0
7953.6619757001445,7953.6619757001445,0.0,0.0
7953.666975700145,7953.666975700145,0.0,0.0
7953.671975700145,7953.671975700145,0.0,0.0
7953.676975700145,7953.676975700145,0.0,0.0
7953.681975700145,7953.681975700145,0.0,0.0
7953.686975700145,7953.686975700145,-0.007138857127771092,0.0
7953.691975700145,7953.691975700145,0.0,0.0
7953.696975700145,7953.696975700145,0.0,0.0
7953.701975700145,7953.701975700145,0.0,0.0
7953.706975700145,7953.706975700145,0.0,0.0
7953.711975700146,7953.711975700146,0.0,0.0
7953.716975700146,7953.716975700146,0.0,0.0
7953.721975700146,7953.721975700146,0.0,0.0
7953.726975700146,7953.726975700146,0.0,0.0
7953.731975700146,7953.731975700146,0.0,0.0
7953.736975700146,7953.736975700146,0.0,0.0
7953.741975700146,7953.741975700146,0.029301275792864734,0.0
7953.746975700146,7953.746975700146,0.0,0.0
7953.751975700146,7953.751975700146,0.0,0.0
7953.7569757001465,7953.7569757001465,0.0,0.0
7953.761975700147,7953.761975700147,0.0,0.0
7953.766975700147,7953.766975700147,0.0,0.0
7953.771975700147,7953.771975700147,0.0,0.0
7953.776975700147,7953.776975700147,0.0,0.0
7953.781975700147,7953.781975700147,0.0,0.0
7953.786975700147,7953.786975700147,0.0,0.0
7953.791975700147,7953.791975700147,0.0,0.0
7953.796975700147,7953.796975700147,0.0497569787839951,0.0
7953.8019757001475,7953.8019757001475,0.0,0.0
7953.806975700148,7953.806975700148,0.0,0.0
7953.811975700148,7953.811975700148,0.0,0.0
7953.816975700148,7953.816975700148,0.0,0.0
7953.821975700148,7953.821975700148,0.0006536452059207945,0.0
7953.826975700148,7953.826975700148,0.0,0.0
7953.831975700148,7953.831975700148,0.0,0.0
7953.836975700148,7953.836975700148,0.0,0.0
7953.841975700148,7953.841975700148,0.0,0.0
7953.8469757001485,7953.8469757001485,0.0,0.0
7953.851975700149,7953.851975700149,0.0,0.0
7953.856975700149,7953.856975700149,0.0,0.0
7953.861975700149,7953.861975700149,0.0,0.0
7953.866975700149,7953.866975700149,0.0,0.0
7953.871975700149,7953.871975700149,0.0,0.0
7953.876975700149,7953.876975700149,0.20667678606343728,0.0
7953.881975700149,7953.881975700149,0.0,0.0
7953.886975700149,7953.886975700149,0.0,0.0
7953.8919757001495,7953.8919757001495,0.0,0.0
7953.89697570015,7953.89697570015,0.0,0.0
7953.90197570015,7953.90197570015,0.0,0.0
7953.90697570015,7953.90697570015,0.0,0.0
7953.91197570015,7953.91197570015,0.0,0.0
7953.91697570015,7953.91697570015,0.0,0.0
7953.92197570015,7953.92197570015,0.0,0.0
7953.92697570015,7953.92697570015,0.0,0.0
7953.93197570015,7953.93197570015,0.0,0.0
7953.9369757001505,7953.9369757001505,0.0,0.0
7953.941975700151,7953.941975700151,0.0,0.0
7953.946975700151,7953.946975700151,0.0,0.0
7953.951975700151,7953.951975700151,0.0,0.0
7953.956975700151,7953.956975700151,0.0,0.0
7953.961975700151,7953.961975700151,0.0,0.0
7953.966975700151,7953.966975700151,0.0,0.0
7953.971975700151,7953.971975700151,0.0,0.0
7953.976975700151,7953.976975700151,0.0,0.0
7953.981975700151,7953.981975700151,0.0,0.0
7953.986975700152,7953.986975700152,0.0,0.0
7953.991975700152,7953.991975700152,0.0,0.0
7953.996975700152,7953.996975700152,0.0,0.0
7954.001975700152,7954.001975700152,0.0,0.0
7954.006975700152,7954.006975700152,0.0,0.0
7954.011975700152,7954.011975700152,0.06245684088797358,0.0
7954.016975700152,7954.016975700152,0.0,0.0
7954.021975700152,7954.021975700152,0.0,0.0
7954.026975700152,7954.026975700152,0.0,0.0
7954.0319757001525,7954.0319757001525,0.0,0.0
7954.036975700153,7954.036975700153,0.0,0.0
7954.041975700153,7954.041975700153,0.0,0.0
7954.046975700153,7954.046975700153,0.0,0.0
7954.051975700153,7954.051975700153,0.0,0.0
7954.056975700153,7954.056975700153,0.0,0.0
7954.061975700153,7954.061975700153,0.0,0.0
7954.066975700153,7954.066975700153,-0.04048172606519318,0.0
7954.071975700153,7954.071975700153,0.0,0.0
7954.0769757001535,7954.0769757001535,0.0,0.0
7954.081975700154,7954.081975700154,0.0,0.0
7954.086975700154,7954.086975700154,0.0,0.0
7954.091975700154,7954.091975700154,0.07779664159873796,0.0
7954.096975700154,7954.096975700154,0.0,0.0
7954.101975700154,7954.101975700154,0.0,0.0
7954.106975700154,7954.106975700154,0.0,0.0
7954.111975700154,7954.111975700154,0.0,0.0
7954.116975700154,7954.116975700154,0.0,0.0
7954.1219757001545,7954.1219757001545,0.0,0.0
7954.126975700155,7954.126975700155,0.0,0.0
7954.131975700155,7954.131975700155,0.0,0.0
7954.136975700155,7954.136975700155,0.0,0.0
7954.141975700155,7954.141975700155,0.0,0.0
7954.146975700155,7954.146975700155,-0.2038155533628202,0.0
7954.151975700155,7954.151975700155,0.0,0.0
7954.156975700155,7954.156975700155,0.0,0.0
7954.161975700155,7954.161975700155,0.0,0.0
7954.1669757001555,7954.1669757001555,0.0,0.0
7954.171975700156,7954.171975700156,0.0,0.0
7954.176975700156,7954.176975700156,0.0,0.0
7954.181975700156,7954.181975700156,0.0,0.0
7954.186975700156,7954.186975700156,0.0,0.0
7954.191975700156,7954.191975700156,0.0,0.0
7954.196975700156,7954.196975700156,0.0,0.0
7954.201975700156,7954.201975700156,0.021252559788420205,0.0
7954.206975700156,7954.206975700156,0.0,0.0
7954.2119757001565,7954.2119757001565,0.0,0.0
7954.216975700157,7954.216975700157,0.0,0.0
7954.221975700157,7954.221975700157,0.0,0.0
7954.226975700157,7954.226975700157,-0.09571192118336687,0.0
7954.231975700157,7954.231975700157,0.0,0.0
7954.236975700157,7954.236975700157,0.0,0.0
7954.241975700157,7954.241975700157,0.0,0.0
7954.246975700157,7954.246975700157,0.0,0.0
7954.251975700157,7954.251975700157,0.0,0.0
7954.256975700157,7954.256975700157,0.0,0.0
7954.261975700158,7954.261975700158,0.0,0.0
7954.266975700158,7954.266975700158,0.0,0.0
7954.271975700158,7954.271975700158,0.0,0.0
7954.276975700158,7954.276975700158,0.0,0.0
7954.281975700158,7954.281975700158,0.007914115181013382,0.0
7954.286975700158,7954.286975700158,0.0,0.0
7954.291975700158,7954.291975700158,0.0,0.0
7954.296975700158,7954.296975700158,0.0,0.0
7954.301975700158,7954.301975700158,0.0,0.0
7954.306975700159,7954.306975700159,0.0,0.0
7954.311975700159,7954.311975700159,0.0,0.0
7954.316975700159,7954.316975700159,0.0,0.0
7954.321975700159,7954.321975700159,0.0,0.0
7954.326975700159,7954.326975700159,0.0,0.0
7954.331975700159,7954.331975700159,0.0,0.0
7954.336975700159,7954.336975700159,0.06928588654152751,0.0
7954.341975700159,7954.341975700159,0.0,0.0
7954.346975700159,7954.346975700159,0.0,0.0
7954.3519757001595,7954.3519757001595,0.0,0.0
7954.35697570016,7954.35697570016,0.0,0.0
7954.36197570016,7954.36197570016,0.0,0.0
7954.36697570016,7954.36697570016,0.0,0.0
7954.37197570016,7954.37197570016,0.0,0.0
7954.37697570016,7954.37697570016,0.0,0.0
7954.38197570016,7954.38197570016,0.0,0.0
7954.38697570016,7954.38697570016,0.0,0.0
7954.39197570016,7954.39197570016,0.0,0.0
7954.3969757001605,7954.3969757001605,0.0,0.0
7954.401975700161,7954.401975700161,0.0,0.0
7954.406975700161,7954.406975700161,0.0,0.0
7954.411975700161,7954.411975700161,0.0,0.0
7954.416975700161,7954.416975700161,0.1344113837967959,0.0
7954.421975700161,7954.421975700161,0.0,0.0
7954.426975700161,7954.426975700161,0.0,0.0
7954.431975700161,7954.431975700161,0.0,0.0
7954.436975700161,7954.436975700161,0.0,0.0
7954.4419757001615,7954.4419757001615,0.0,0.0
7954.446975700162,7954.446975700162,0.0,0.0
7954.451975700162,7954.451975700162,0.0,0.0
7954.456975700162,7954.456975700162,0.0,0.0
7954.461975700162,7954.461975700162,0.0,0.0
7954.466975700162,7954.466975700162,0.0,0.0
7954.471975700162,7954.471975700162,0.00835397428641807,0.0
7954.476975700162,7954.476975700162,0.0,0.0
7954.481975700162,7954.481975700162,0.0,0.0
7954.4869757001625,7954.4869757001625,0.0,0.0
7954.491975700163,7954.491975700163,0.0,0.0
7954.496975700163,7954.496975700163,0.11451717326227535,0.0
7954.501975700163,7954.501975700163,0.0,0.0
7954.506975700163,7954.506975700163,0.0,0.0
7954.511975700163,7954.511975700163,0.0,0.0
7954.516975700163,7954.516975700163,0.0,0.0
7954.521975700163,7954.521975700163,0.0,0.0
7954.526975700163,7954.526975700163,0.0,0.0
7954.5319757001635,7954.5319757001635,0.0,0.0
7954.536975700164,7954.536975700164,0.0,0.0
7954.541975700164,7954.541975700164,0.0,0.0
7954.546975700164,7954.546975700164,0.0,0.0
7954.551975700164,7954.551975700164,0.1669028090400006,0.0
7954.556975700164,7954.556975700164,0.0,0.0
7954.561975700164,7954.561975700164,0.0,0.0
7954.566975700164,7954.566975700164,0.0,0.0
7954.571975700164,7954.571975700164,0.0,0.0
7954.576975700164,7954.576975700164,0.0,0.0
7954.581975700165,7954.581975700165,0.0,0.0
7954.586975700165,7954.586975700165,0.0,0.0
7954.591975700165,7954.591975700165,0.0,0.0
7954.596975700165,7954.596975700165,0.0,0.0
7954.601975700165,7954.601975700165,0.0,0.0
7954.606975700165,7954.606975700165,0.0,0.0
7954.611975700165,7954.611975700165,0.0,0.0
7954.616975700165,7954.616975700165,0.0,0.0
7954.621975700165,7954.621975700165,0.0,0.0
7954.6269757001655,7954.6269757001655,0.0,0.0
7954.631975700166,7954.631975700166,0.09416257549089135,0.0
7954.636975700166,7954.636975700166,0.0,0.0
7954.641975700166,7954.641975700166,0.0,0.0
7954.646975700166,7954.646975700166,0.0,0.0
7954.651975700166,7954.651975700166,0.0,0.0
7954.656975700166,7954.656975700166,0.0,0.0
7954.661975700166,7954.661975700166,0.0,0.0
7954.666975700166,7954.666975700166,0.0,0.0
7954.6719757001665,7954.6719757001665,0.0,0.0
7954.676975700167,7954.676975700167,0.0,0.0
7954.681975700167,7954.681975700167,0.0,0.0
7954.686975700167,7954.686975700167,-0.19334408999491282,0.0
7954.691975700167,7954.691975700167,0.0,0.0
7954.696975700167,7954.696975700167,0.0,0.0
7954.701975700167,7954.701975700167,0.0,0.0
7954.706975700167,7954.706975700167,0.0,0.0
7954.711975700167,7954.711975700167,0.0,0.0
7954.7169757001675,7954.7169757001675,0.0,0.0
7954.721975700168,7954.721975700168,0.0,0.0
7954.726975700168,7954.726975700168,0.0,0.0
7954.731975700168,7954.731975700168,0.0,0.0
7954.736975700168,7954.736975700168,0.0,0.0
7954.741975700168,7954.741975700168,0.0,0.0
7954.746975700168,7954.746975700168,0.0,0.0
7954.751975700168,7954.751975700168,0.0,0.0
7954.756975700168,7954.756975700168,0.0,0.0
7954.7619757001685,7954.7619757001685,0.0,0.0
7954.766975700169,7954.766975700169,0.0,0.0
7954.771975700169,7954.771975700169,0.0,0.0
7954.776975700169,7954.776975700169,0.0,0.0
7954.781975700169,7954.781975700169,0.0,0.0
7954.786975700169,7954.786975700169,0.0,0.0
7954.791975700169,7954.791975700169,0.0,0.0
7954.796975700169,7954.796975700169,0.0,0.0
7954.801975700169,7954.801975700169,0.0,0.0
7954.8069757001695,7954.8069757001695,0.0,0.0
7954.81197570017,7954.81197570017,0.0,0.0
7954.81697570017,7954.81697570017,0.0,0.0
7954.82197570017,7954.82197570017,-0.016108944952163445,0.0
7954.82697570017,7954.82697570017,0.0,0.0
7954.83197570017,7954.83197570017,0.0,0.0
7954.83697570017,7954.83697570017,0.0,0.0
7954.84197570017,7954.84197570017,0.0,0.0
7954.84697570017,7954.84697570017,0.0,0.0
7954.85197570017,7954.85197570017,0.0,0.0
7954.856975700171,7954.856975700171,0.0,0.0
7954.861975700171,7954.861975700171,0.0,0.0
7954.866975700171,7954.866975700171,0.0,0.0
7954.871975700171,7954.871975700171,0.0,0.0
7954.876975700171,7954.876975700171,0.0,0.0
7954.881975700171,7954.881975700171,0.0,0.0
7954.886975700171,7954.886975700171,0.0,0.0
7954.891975700171,7954.891975700171,0.0,0.0
7954.896975700171,7954.896975700171,0.0,0.0
7954.9019757001715,7954.9019757001715,0.0,0.0
7954.906975700172,7954.906975700172,0.0,0.0
7954.911975700172,7954.911975700172,0.0,0.0
7954.916975700172,7954.916975700172,0.0,0.0
7954.921975700172,7954.921975700172,0.0,0.0
7954.926975700172,7954.926975700172,0.03765098180168991,0.0
7954.931975700172,7954.931975700172,0.015432683227117966,0.0
7954.936975700172,7954.936975700172,0.0,0.0
7954.941975700172,7954.941975700172,0.0,0.0
7954.9469757001725,7954.9469757001725,0.0,0.0
7954.951975700173,7954.951975700173,0.0,0.0
7954.956975700173,7954.956975700173,0.09723987706793764,0.0
7954.961975700173,7954.961975700173,0.0,0.0
7954.966975700173,7954.966975700173,0.0,0.0
7954.971975700173,7954.971975700173,0.0,0.0
7954.976975700173,7954.976975700173,0.0,0.0
7954.981975700173,7954.981975700173,0.0,0.0
7954.986975700173,7954.986975700173,0.0,0.0
7954.9919757001735,7954.9919757001735,0.0,0.0
7954.996975700174,7954.996975700174,0.0,0.0
7955.001975700174,7955.001975700174,0.0,0.0
7955.006975700174,7955.006975700174,0.0,0.0
7955.011975700174,7955.011975700174,0.11636541382259602,0.0
7955.016975700174,7955.016975700174,0.0,0.0
7955.021975700174,7955.021975700174,0.0,0.0
7955.026975700174,7955.026975700174,0.0,0.0
7955.031975700174,7955.031975700174,0.0,0.0
7955.0369757001745,7955.0369757001745,0.0,0.0
7955.041975700175,7955.041975700175,0.0,0.0
7955.046975700175,7955.046975700175,0.0,0.0
7955.051975700175,7955.051975700175,0.0,0.0
7955.056975700175,7955.056975700175,0.0,0.0
7955.061975700175,7955.061975700175,0.0,0.0
7955.066975700175,7955.066975700175,-0.2626314845597388,0.0
7955.071975700175,7955.071975700175,0.0,0.0
7955.076975700175,7955.076975700175,0.0,0.0
7955.0819757001755,7955.0819757001755,0.0,0.0
7955.086975700176,7955.086975700176,0.0,0.0
7955.091975700176,7955.091975700176,0.17043719553792877,0.0
7955.096975700176,7955.096975700176,0.0,0.0
7955.101975700176,7955.101975700176,0.0,0.0
7955.106975700176,7955.106975700176,0.0,0.0
7955.111975700176,7955.111975700176,0.0,0.0
7955.116975700176,7955.116975700176,0.0,0.0
7955.121975700176,7955.121975700176,0.0,0.0
7955.126975700176,7955.126975700176,0.0,0.0
7955.131975700177,7955.131975700177,0.0,0.0
7955.136975700177,7955.136975700177,0.0,0.0
7955.141975700177,7955.141975700177,0.0,0.0
7955.146975700177,7955.146975700177,-0.0840033852995643,0.0
7955.151975700177,7955.151975700177,0.0,0.0
7955.156975700177,7955.156975700177,0.0,0.0
7955.161975700177,7955.161975700177,0.0,0.0
7955.166975700177,7955.166975700177,0.0,0.0
7955.171975700177,7955.171975700177,0.15051609148612238,0.0
7955.1769757001775,7955.1769757001775,0.0,0.0
7955.181975700178,7955.181975700178,0.0,0.0
7955.186975700178,7955.186975700178,0.0,0.0
7955.191975700178,7955.191975700178,0.0,0.0
7955.196975700178,7955.196975700178,0.0,0.0
7955.201975700178,7955.201975700178,0.0,0.0
7955.206975700178,7955.206975700178,0.0,0.0
7955.211975700178,7955.211975700178,0.0,0.0
7955.216975700178,7955.216975700178,0.0,0.0
7955.2219757001785,7955.2219757001785,0.0,0.0
7955.226975700179,7955.226975700179,-0.12013206010981822,0.0
7955.231975700179,7955.231975700179,0.0,0.0
7955.236975700179,7955.236975700179,0.0,0.0
7955.241975700179,7955.241975700179,0.0,0.0
7955.246975700179,7955.246975700179,0.0,0.0
7955.251975700179,7955.251975700179,0.0,0.0
7955.256975700179,7955.256975700179,0.0,0.0
7955.261975700179,7955.261975700179,0.0,0.0
7955.2669757001795,7955.2669757001795,0.0,0.0
7955.27197570018,7955.27197570018,0.0,0.0
7955.27697570018,7955.27697570018,0.0,0.0
7955.28197570018,7955.28197570018,0.0,0.0
7955.28697570018,7955.28697570018,0.0,0.0
7955.29197570018,7955.29197570018,0.0,0.0
7955.29697570018,7955.29697570018,0.0,0.0
7955.30197570018,7955.30197570018,0.0,0.0
7955.30697570018,7955.30697570018,-0.04505132582082527,0.0
7955.3119757001805,7955.3119757001805,0.0,0.0
7955.316975700181,7955.316975700181,0.0,0.0
7955.321975700181,7955.321975700181,0.0,0.0
7955.326975700181,7955.326975700181,0.0,0.0
7955.331975700181,7955.331975700181,0.0,0.0
7955.336975700181,7955.336975700181,0.0,0.0
7955.341975700181,7955.341975700181,0.0,0.0
7955.346975700181,7955.346975700181,0.0,0.0
7955.351975700181,7955.351975700181,0.0,0.0
7955.3569757001815,7955.3569757001815,0.0,0.0
7955.361975700182,7955.361975700182,-0.06327694675581184,0.0
7955.366975700182,7955.366975700182,0.0,0.0
7955.371975700182,7955.371975700182,0.0,0.0
7955.376975700182,7955.376975700182,0.0,0.0
7955.381975700182,7955.381975700182,0.0,0.0
7955.386975700182,7955.386975700182,0.0049943569974972915,0.0
7955.391975700182,7955.391975700182,0.0,0.0
7955.396975700182,7955.396975700182,0.0,0.0
7955.401975700182,7955.401975700182,0.0,0.0
7955.406975700183,7955.406975700183,0.0,0.0
7955.411975700183,7955.411975700183,0.0,0.0
7955.416975700183,7955.416975700183,0.02684151624737502,0.0
7955.421975700183,7955.421975700183,0.0,0.0
7955.426975700183,7955.426975700183,0.0,0.0
7955.431975700183,7955.431975700183,0.0,0.0
7955.436975700183,7955.436975700183,0.0,0.0
7955.441975700183,7955.441975700183,-0.15698322624367242,0.0
7955.446975700183,7955.446975700183,0.0,0.0
7955.4519757001835,7955.4519757001835,0.0,0.0
7955.456975700184,7955.456975700184,0.0,0.0
7955.461975700184,7955.461975700184,0.0,0.0
7955.466975700184,7955.466975700184,0.0,0.0
7955.471975700184,7955.471975700184,0.0,0.0
7955.476975700184,7955.476975700184,0.0,0.0
7955.481975700184,7955.481975700184,0.0,0.0
7955.486975700184,7955.486975700184,0.0,0.0
7955.491975700184,7955.491975700184,0.0,0.0
7955.4969757001845,7955.4969757001845,0.08662398566410488,0.0
7955.501975700185,7955.501975700185,0.0,0.0
7955.506975700185,7955.506975700185,0.0,0.0
7955.511975700185,7955.511975700185,0.0,0.0
7955.516975700185,7955.516975700185,0.0,0.0
7955.521975700185,7955.521975700185,0.0,0.0
7955.526975700185,7955.526975700185,0.0,0.0
7955.531975700185,7955.531975700185,0.0,0.0
7955.536975700185,7955.536975700185,0.0,0.0
7955.5419757001855,7955.5419757001855,0.0,0.0
7955.546975700186,7955.546975700186,0.0,0.0
7955.551975700186,7955.551975700186,0.0,0.0
7955.556975700186,7955.556975700186,0.0,0.0
7955.561975700186,7955.561975700186,0.0,0.0
7955.566975700186,7955.566975700186,0.0,0.0
7955.571975700186,7955.571975700186,0.0,0.0
7955.576975700186,7955.576975700186,0.004181724030683398,0.0
7955.581975700186,7955.581975700186,0.0,0.0
7955.5869757001865,7955.5869757001865,0.0,0.0
7955.591975700187,7955.591975700187,0.0,0.0
7955.596975700187,7955.596975700187,0.0,0.0
7955.601975700187,7955.601975700187,0.0,0.0
7955.606975700187,7955.606975700187,0.0,0.0
7955.611975700187,7955.611975700187,0.0,0.0
7955.616975700187,7955.616975700187,0.0,0.0
7955.621975700187,7955.621975700187,0.0,0.0
7955.626975700187,7955.626975700187,0.0,0.0
7955.6319757001875,7955.6319757001875,0.18618900871973637,0.0
7955.636975700188,7955.636975700188,0.0,0.0
7955.641975700188,7955.641975700188,0.0,0.0
7955.646975700188,7955.646975700188,0.0,0.0
7955.651975700188,7955.651975700188,0.0,0.0
7955.656975700188,7955.656975700188,0.0,0.0
7955.661975700188,7955.661975700188,0.0,0.0
7955.666975700188,7955.666975700188,0.0,0.0
7955.671975700188,7955.671975700188,0.0,0.0
7955.676975700188,7955.676975700188,0.0,0.0
7955.681975700189,7955.681975700189,0.0,0.0
7955.686975700189,7955.686975700189,-0.10573104746125783,0.0
7955.691975700189,7955.691975700189,0.0,0.0
7955.696975700189,7955.696975700189,0.0,0.0
7955.701975700189,7955.701975700189,0.0,0.0
7955.706975700189,7955.706975700189,0.0,0.0
7955.711975700189,7955.711975700189,0.017607289958730444,0.0
7955.716975700189,7955.716975700189,0.0,0.0
7955.721975700189,7955.721975700189,0.0,0.0
7955.7269757001895,7955.7269757001895,0.0,0.0
7955.73197570019,7955.73197570019,0.0,0.0
7955.73697570019,7955.73697570019,0.0,0.0
7955.74197570019,7955.74197570019,0.0,0.0
7955.74697570019,7955.74697570019,0.0,0.0
7955.75197570019,7955.75197570019,0.0,0.0
7955.75697570019,7955.75697570019,0.0,0.0
7955.76197570019,7955.76197570019,0.0,0.0
7955.76697570019,7955.76697570019,-0.03830523216357768,0.0
7955.7719757001905,7955.7719757001905,0.0,0.0
7955.776975700191,7955.776975700191,0.0,0.0
7955.781975700191,7955.781975700191,0.0,0.0
7955.786975700191,7955.786975700191,0.0,0.0
7955.791975700191,7955.791975700191,0.0,0.0
7955.796975700191,7955.796975700191,0.0,0.0
7955.801975700191,7955.801975700191,0.0,0.0
7955.806975700191,7955.806975700191,0.0,0.0
7955.811975700191,7955.811975700191,0.0,0.0
7955.8169757001915,7955.8169757001915,0.0,0.0
7955.821975700192,7955.821975700192,0.0,0.0
7955.826975700192,7955.826975700192,0.0,0.0
7955.831975700192,7955.831975700192,0.0,0.0
7955.836975700192,7955.836975700192,0.0,0.0
7955.841975700192,7955.841975700192,0.0,0.0
7955.846975700192,7955.846975700192,0.007003356258032465,0.0
7955.851975700192,7955.851975700192,0.0,0.0
7955.856975700192,7955.856975700192,0.0,0.0
7955.8619757001925,7955.8619757001925,0.0,0.0
7955.866975700193,7955.866975700193,0.0,0.0
7955.871975700193,7955.871975700193,0.0,0.0
7955.876975700193,7955.876975700193,0.0,0.0
7955.881975700193,7955.881975700193,0.0,0.0
7955.886975700193,7955.886975700193,0.0,0.0
7955.891975700193,7955.891975700193,0.0,0.0
7955.896975700193,7955.896975700193,0.0,0.0
7955.901975700193,7955.901975700193,0.0,0.0
7955.9069757001935,7955.9069757001935,0.0,0.0
7955.911975700194,7955.911975700194,0.0,0.0
7955.916975700194,7955.916975700194,0.0,0.0
7955.921975700194,7955.921975700194,0.0,0.0
7955.926975700194,7955.926975700194,0.0,0.0
7955.931975700194,7955.931975700194,0.0,0.0
7955.936975700194,7955.936975700194,0.0,0.0
7955.941975700194,7955.941975700194,0.0,0.0
7955.946975700194,7955.946975700194,0.0,0.0
7955.951975700194,7955.951975700194,0.0,0.0
7955.956975700195,7955.956975700195,0.0,0.0
7955.961975700195,7955.961975700195,0.0,0.0
7955.966975700195,7955.966975700195,0.0,0.0
7955.971975700195,7955.971975700195,0.0,0.0
7955.976975700195,7955.976975700195,0.0,0.0
7955.981975700195,7955.981975700195,0.0,0.0
7955.986975700195,7955.986975700195,0.0,0.0
7955.991975700195,7955.991975700195,0.0,0.0
7955.996975700195,7955.996975700195,0.0,0.0
7956.0019757001955,7956.0019757001955,0.0,0.0
7956.006975700196,7956.006975700196,0.0,0.0
7956.011975700196,7956.011975700196,0.0,0.0
7956.016975700196,7956.016975700196,0.0,0.0
7956.021975700196,7956.021975700196,0.0,0.0
7956.026975700196,7956.026975700196,0.0,0.0
7956.031975700196,7956.031975700196,0.0,0.0
7956.036975700196,7956.036975700196,0.0030276305122980476,0.0
7956.041975700196,7956.041975700196,0.0,0.0
7956.0469757001965,7956.0469757001965,0.0,0.0
7956.051975700197,7956.051975700197,0.0,0.0
7956.056975700197,7956.056975700197,0.0,0.0
7956.061975700197,7956.061975700197,0.0,0.0
7956.066975700197,7956.066975700197,0.0,0.0
7956.071975700197,7956.071975700197,0.0,0.0
7956.076975700197,7956.076975700197,0.0,0.0
7956.081975700197,7956.081975700197,0.0,0.0
7956.086975700197,7956.086975700197,0.0,0.0
7956.0919757001975,7956.0919757001975,0.0,0.0
7956.096975700198,7956.096975700198,0.0,0.0
7956.101975700198,7956.101975700198,0.0,0.0
7956.106975700198,7956.106975700198,0.0,0.0
7956.111975700198,7956.111975700198,0.0,0.0
7956.116975700198,7956.116975700198,0.006705207139967996,0.0
7956.121975700198,7956.121975700198,0.0,0.0
7956.126975700198,7956.126975700198,0.0,0.0
7956.131975700198,7956.131975700198,0.0,0.0
7956.1369757001985,7956.1369757001985,0.0,0.0
7956.141975700199,7956.141975700199,0.0,0.0
7956.146975700199,7956.146975700199,0.0,0.0
7956.151975700199,7956.151975700199,0.0,0.0
7956.156975700199,7956.156975700199,0.0,0.0
7956.161975700199,7956.161975700199,0.0,0.0
7956.166975700199,7956.166975700199,0.0,0.0
7956.171975700199,7956.171975700199,0.1546336154963448,0.0
7956.176975700199,7956.176975700199,0.0,0.0
7956.1819757001995,7956.1819757001995,0.0,0.0
7956.1869757002,7956.1869757002,0.0,0.0
7956.1919757002,7956.1919757002,0.0,0.0
7956.1969757002,7956.1969757002,0.0,0.0
7956.2019757002,7956.2019757002,0.0,0.0
7956.2069757002,7956.2069757002,0.0,0.0
7956.2119757002,7956.2119757002,0.0,0.0
7956.2169757002,7956.2169757002,0.0,0.0
7956.2219757002,7956.2219757002,0.0,0.0
7956.2269757002005,7956.2269757002005,-0.007848981468787777,0.0
7956.231975700201,7956.231975700201,0.0,0.0
7956.236975700201,7956.236975700201,0.0,0.0
7956.241975700201,7956.241975700201,0.0,0.0
7956.246975700201,7956.246975700201,0.0,0.0
7956.251975700201,7956.251975700201,0.0,0.0
7956.256975700201,7956.256975700201,0.0,0.0
7956.261975700201,7956.261975700201,0.0,0.0
7956.266975700201,7956.266975700201,0.0,0.0
7956.271975700201,7956.271975700201,0.0,0.0
7956.276975700202,7956.276975700202,0.0,0.0
7956.281975700202,7956.281975700202,0.0,0.0
7956.286975700202,7956.286975700202,0.0,0.0
7956.291975700202,7956.291975700202,0.0,0.0
7956.296975700202,7956.296975700202,0.0,0.0
7956.301975700202,7956.301975700202,0.0,0.0
7956.306975700202,7956.306975700202,0.05748932286097447,0.0
7956.311975700202,7956.311975700202,0.0,0.0
7956.316975700202,7956.316975700202,0.0,0.0
7956.3219757002025,7956.3219757002025,0.0,0.0
7956.326975700203,7956.326975700203,0.0,0.0
7956.331975700203,7956.331975700203,0.0,0.0
7956.336975700203,7956.336975700203,0.0,0.0
7956.341975700203,7956.341975700203,0.0,0.0
7956.346975700203,7956.346975700203,0.0,0.0
7956.351975700203,7956.351975700203,0.0,0.0
7956.356975700203,7956.356975700203,0.0,0.0
7956.361975700203,7956.361975700203,0.0,0.0
7956.3669757002035,7956.3669757002035,0.0,0.0
7956.371975700204,7956.371975700204,0.0,0.0
7956.376975700204,7956.376975700204,0.0,0.0
7956.381975700204,7956.381975700204,0.0,0.0
7956.386975700204,7956.386975700204,0.014763429594129416,0.0
7956.391975700204,7956.391975700204,0.0,0.0
7956.396975700204,7956.396975700204,0.0,0.0
7956.401975700204,7956.401975700204,0.0,0.0
7956.406975700204,7956.406975700204,0.0,0.0
7956.4119757002045,7956.4119757002045,0.0,0.0
7956.416975700205,7956.416975700205,0.0,0.0
7956.421975700205,7956.421975700205,0.0,0.0
7956.426975700205,7956.426975700205,0.0,0.0
7956.431975700205,7956.431975700205,0.0,0.0
7956.436975700205,7956.436975700205,0.0,0.0
7956.441975700205,7956.441975700205,-0.12001229029099422,0.0
7956.446975700205,7956.446975700205,0.0,0.0
7956.451975700205,7956.451975700205,0.0,0.0
7956.4569757002055,7956.4569757002055,0.0,0.0
7956.461975700206,7956.461975700206,0.0,0.0
7956.466975700206,7956.466975700206,0.0,0.0
7956.471975700206,7956.471975700206,0.0,0.0
7956.476975700206,7956.476975700206,0.0,0.0
7956.481975700206,7956.481975700206,0.0,0.0
7956.486975700206,7956.486975700206,0.0,0.0
7956.491975700206,7956.491975700206,0.0,0.0
7956.496975700206,7956.496975700206,0.03920570481914941,0.0
7956.5019757002065,7956.5019757002065,0.0,0.0
7956.506975700207,7956.506975700207,0.0,0.0
7956.511975700207,7956.511975700207,0.0,0.0
7956.516975700207,7956.516975700207,0.0,0.0
7956.521975700207,7956.521975700207,-0.01410012860881035,0.0
7956.526975700207,7956.526975700207,0.0,0.0
7956.531975700207,7956.531975700207,0.0,0.0
7956.536975700207,7956.536975700207,0.0,0.0
7956.541975700207,7956.541975700207,0.0,0.0
7956.546975700207,7956.546975700207,0.0,0.0
7956.551975700208,7956.551975700208,0.0,0.0
7956.556975700208,7956.556975700208,0.0,0.0
7956.561975700208,7956.561975700208,0.0,0.0
7956.566975700208,7956.566975700208,0.0,0.0
7956.571975700208,7956.571975700208,0.0,0.0
7956.576975700208,7956.576975700208,0.01246694837454207,0.0
7956.581975700208,7956.581975700208,0.0,0.0
7956.586975700208,7956.586975700208,0.0,0.0
7956.591975700208,7956.591975700208,0.0,0.0
7956.5969757002085,7956.5969757002085,0.0,0.0
7956.601975700209,7956.601975700209,0.0,0.0
7956.606975700209,7956.606975700209,0.0,0.0
7956.611975700209,7956.611975700209,0.0,0.0
7956.616975700209,7956.616975700209,0.0,0.0
7956.621975700209,7956.621975700209,0.0,0.0
7956.626975700209,7956.626975700209,0.0,0.0
7956.631975700209,7956.631975700209,0.0,0.0
7956.636975700209,7956.636975700209,0.0,0.0
7956.6419757002095,7956.6419757002095,0.0,0.0
7956.64697570021,7956.64697570021,0.0,0.0
7956.65197570021,7956.65197570021,0.0,0.0
7956.65697570021,7956.65697570021,-5.778004768868655e-05,0.0
7956.66197570021,7956.66197570021,0.0,0.0
7956.66697570021,7956.66697570021,0.0,0.0
7956.67197570021,7956.67197570021,0.0,0.0
7956.67697570021,7956.67697570021,0.0,0.0
7956.68197570021,7956.68197570021,0.0,0.0
7956.6869757002105,7956.6869757002105,0.0,0.0
7956.691975700211,7956.691975700211,0.0,0.0
7956.696975700211,7956.696975700211,0.0,0.0
7956.701975700211,7956.701975700211,0.0,0.0
7956.706975700211,7956.706975700211,0.0,0.0
7956.711975700211,7956.711975700211,0.17936682117308228,0.0
7956.716975700211,7956.716975700211,0.0,0.0
7956.721975700211,7956.721975700211,0.0,0.0
7956.726975700211,7956.726975700211,0.0,0.0
7956.7319757002115,7956.7319757002115,0.0,0.0
7956.736975700212,7956.736975700212,0.0,0.0
7956.741975700212,7956.741975700212,0.0,0.0
7956.746975700212,7956.746975700212,0.0,0.0
7956.751975700212,7956.751975700212,0.0,0.0
7956.756975700212,7956.756975700212,0.0,0.0
7956.761975700212,7956.761975700212,0.0,0.0
7956.766975700212,7956.766975700212,0.05185026263728692,0.0
7956.771975700212,7956.771975700212,0.0,0.0
7956.7769757002125,7956.7769757002125,0.0,0.0
7956.781975700213,7956.781975700213,0.0,0.0
7956.786975700213,7956.786975700213,0.0,0.0
7956.791975700213,7956.791975700213,0.0449568130505202,0.0
7956.796975700213,7956.796975700213,0.0,0.0
7956.801975700213,7956.801975700213,0.0,0.0
7956.806975700213,7956.806975700213,0.0,0.0
7956.811975700213,7956.811975700213,0.0,0.0
7956.816975700213,7956.816975700213,0.0,0.0
7956.821975700213,7956.821975700213,0.0,0.0
7956.826975700214,7956.826975700214,0.0,0.0
7956.831975700214,7956.831975700214,0.0,0.0
7956.836975700214,7956.836975700214,0.0,0.0
7956.841975700214,7956.841975700214,0.0,0.0
7956.846975700214,7956.846975700214,0.030020107615293067,0.0
7956.851975700214,7956.851975700214,0.0,0.0
7956.856975700214,7956.856975700214,0.0,0.0
7956.861975700214,7956.861975700214,0.0,0.0
7956.866975700214,7956.866975700214,0.0,0.0
7956.8719757002145,7956.8719757002145,0.0,0.0
7956.876975700215,7956.876975700215,0.0,0.0
7956.881975700215,7956.881975700215,0.0,0.0
7956.886975700215,7956.886975700215,0.0,0.0
7956.891975700215,7956.891975700215,0.0,0.0
7956.896975700215,7956.896975700215,0.0,0.0
7956.901975700215,7956.901975700215,0.0,0.0
7956.906975700215,7956.906975700215,0.0,0.0
7956.911975700215,7956.911975700215,0.0,0.0
7956.9169757002155,7956.9169757002155,0.0,0.0
7956.921975700216,7956.921975700216,0.0,0.0
7956.926975700216,7956.926975700216,0.0,0.0
7956.931975700216,7956.931975700216,0.0,0.0
7956.936975700216,7956.936975700216,0.0,0.0
7956.941975700216,7956.941975700216,0.0,0.0
7956.946975700216,7956.946975700216,0.0,0.0
7956.951975700216,7956.951975700216,0.0,0.0
7956.956975700216,7956.956975700216,0.03840062828166934,0.0
7956.9619757002165,7956.9619757002165,0.0,0.0
7956.966975700217,7956.966975700217,0.0,0.0
7956.971975700217,7956.971975700217,0.0,0.0
7956.976975700217,7956.976975700217,0.0,0.0
7956.981975700217,7956.981975700217,-0.24424398705611738,0.0
7956.986975700217,7956.986975700217,0.0,0.0
7956.991975700217,7956.991975700217,0.0,0.0
7956.996975700217,7956.996975700217,0.0,0.0
7957.001975700217,7957.001975700217,0.0,0.0
7957.0069757002175,7957.0069757002175,0.0,0.0
7957.011975700218,7957.011975700218,0.0,0.0
7957.016975700218,7957.016975700218,0.0,0.0
7957.021975700218,7957.021975700218,0.0,0.0
7957.026975700218,7957.026975700218,0.0,0.0
7957.031975700218,7957.031975700218,0.0,0.0
7957.036975700218,7957.036975700218,0.012607776527919484,0.0
7957.041975700218,7957.041975700218,0.0,0.0
7957.046975700218,7957.046975700218,0.0,0.0
7957.0519757002185,7957.0519757002185,0.0,0.0
7957.056975700219,7957.056975700219,0.0,0.0
7957.061975700219,7957.061975700219,0.0,0.0
7957.066975700219,7957.066975700219,0.0,0.0
7957.071975700219,7957.071975700219,0.0,0.0
7957.076975700219,7957.076975700219,0.0,0.0
7957.081975700219,7957.081975700219,0.0,0.0
7957.086975700219,7957.086975700219,0.0,0.0
7957.091975700219,7957.091975700219,0.0,0.0
7957.096975700219,7957.096975700219,0.0,0.0
7957.10197570022,7957.10197570022,0.0,0.0
7957.10697570022,7957.10697570022,0.0,0.0
7957.11197570022,7957.11197570022,0.0,0.0
7957.11697570022,7957.11697570022,-0.001286110764701881,0.0
7957.12197570022,7957.12197570022,0.0,0.0
7957.12697570022,7957.12697570022,0.0,0.0
7957.13197570022,7957.13197570022,0.0,0.0
7957.13697570022,7957.13697570022,0.0,0.0
7957.14197570022,7957.14197570022,0.0,0.0
7957.1469757002205,7957.1469757002205,0.0,0.0
7957.151975700221,7957.151975700221,0.0,0.0
7957.156975700221,7957.156975700221,0.0,0.0
7957.161975700221,7957.161975700221,0.0,0.0
7957.166975700221,7957.166975700221,0.0,0.0
7957.171975700221,7957.171975700221,0.0,0.0
7957.176975700221,7957.176975700221,0.0,0.0
7957.181975700221,7957.181975700221,0.0,0.0
7957.186975700221,7957.186975700221,0.0,0.0
7957.1919757002215,7957.1919757002215,0.0,0.0
7957.196975700222,7957.196975700222,-0.02969757286920574,0.0
7957.201975700222,7957.201975700222,0.0,0.0
7957.206975700222,7957.206975700222,0.0,0.0
7957.211975700222,7957.211975700222,0.0,0.0
7957.216975700222,7957.216975700222,0.0,0.0
7957.221975700222,7957.221975700222,0.0,0.0
7957.226975700222,7957.226975700222,0.0,0.0
7957.231975700222,7957.231975700222,0.0,0.0
7957.2369757002225,7957.2369757002225,0.0,0.0
7957.241975700223,7957.241975700223,0.0,0.0
7957.246975700223,7957.246975700223,0.0,0.0
7957.251975700223,7957.251975700223,0.13374303384101535,0.0
7957.256975700223,7957.256975700223,0.0,0.0
7957.261975700223,7957.261975700223,0.0,0.0
7957.266975700223,7957.266975700223,0.0,0.0
7957.271975700223,7957.271975700223,0.0,0.0
7957.276975700223,7957.276975700223,0.0,0.0
7957.2819757002235,7957.2819757002235,0.0,0.0
7957.286975700224,7957.286975700224,0.0,0.0
7957.291975700224,7957.291975700224,0.0,0.0
7957.296975700224,7957.296975700224,0.0,0.0
7957.301975700224,7957.301975700224,0.0,0.0
7957.306975700224,7957.306975700224,0.112488893354394,0.0
7957.311975700224,7957.311975700224,0.0,0.0
7957.316975700224,7957.316975700224,0.0,0.0
7957.321975700224,7957.321975700224,0.0,0.0
7957.3269757002245,7957.3269757002245,0.0,0.0
7957.331975700225,7957.331975700225,0.023475047675678765,0.0
7957.336975700225,7957.336975700225,0.0,0.0
7957.341975700225,7957.341975700225,0.0,0.0
7957.346975700225,7957.346975700225,0.0,0.0
7957.351975700225,7957.351975700225,0.0,0.0
7957.356975700225,7957.356975700225,0.0,0.0
7957.361975700225,7957.361975700225,-0.08805683129638,0.0
7957.366975700225,7957.366975700225,0.0,0.0
7957.371975700225,7957.371975700225,0.0,0.0
7957.376975700226,7957.376975700226,0.0,0.0
7957.381975700226,7957.381975700226,0.0,0.0
7957.386975700226,7957.386975700226,0.2604353124502638,0.0
7957.391975700226,7957.391975700226,0.0,0.0
7957.396975700226,7957.396975700226,0.0,0.0
7957.401975700226,7957.401975700226,0.0,0.0
7957.406975700226,7957.406975700226,0.0,0.0
7957.411975700226,7957.411975700226,0.0,0.0
7957.416975700226,7957.416975700226,0.0,0.0
7957.4219757002265,7957.4219757002265,0.0,0.0
7957.426975700227,7957.426975700227,0.0,0.0
7957.431975700227,7957.431975700227,0.0,0.0
7957.436975700227,7957.436975700227,0.0,0.0
7957.441975700227,7957.441975700227,0.0,0.0
7957.446975700227,7957.446975700227,0.0,0.0
7957.451975700227,7957.451975700227,0.0,0.0
7957.456975700227,7957.456975700227,0.0,0.0
7957.461975700227,7957.461975700227,0.0,0.0
7957.4669757002275,7957.4669757002275,0.11713215305090768,0.0
7957.471975700228,7957.471975700228,0.0,0.0
7957.476975700228,7957.476975700228,0.0,0.0
7957.481975700228,7957.481975700228,0.0,0.0
7957.486975700228,7957.486975700228,0.0,0.0
7957.491975700228,7957.491975700228,0.0,0.0
7957.496975700228,7957.496975700228,0.0,0.0
7957.501975700228,7957.501975700228,0.0,0.0
7957.506975700228,7957.506975700228,0.0,0.0
7957.5119757002285,7957.5119757002285,0.0,0.0
7957.516975700229,7957.516975700229,0.0,0.0
7957.521975700229,7957.521975700229,-0.08477729437812213,0.0
7957.526975700229,7957.526975700229,0.0,0.0
7957.531975700229,7957.531975700229,0.0,0.0
7957.536975700229,7957.536975700229,0.0,0.0
7957.541975700229,7957.541975700229,0.0,0.0
7957.546975700229,7957.546975700229,0.0,0.0
7957.551975700229,7957.551975700229,0.0,0.0
7957.5569757002295,7957.5569757002295,0.0,0.0
7957.56197570023,7957.56197570023,0.0,0.0
7957.56697570023,7957.56697570023,0.0,0.0
7957.57197570023,7957.57197570023,0.0,0.0
7957.57697570023,7957.57697570023,-0.0017744277192299311,0.0
7957.58197570023,7957.58197570023,0.0,0.0
7957.58697570023,7957.58697570023,0.0,0.0
7957.59197570023,7957.59197570023,0.0,0.0
7957.59697570023,7957.59697570023,0.0,0.0
7957.6019757002305,7957.6019757002305,-0.04178348926230246,0.0
7957.606975700231,7957.606975700231,0.0,0.0
7957.611975700231,7957.611975700231,0.0,0.0
7957.616975700231,7957.616975700231,0.0,0.0
7957.621975700231,7957.621975700231,0.0,0.0
7957.626975700231,7957.626975700231,0.0,0.0
7957.631975700231,7957.631975700231,0.0,0.0
7957.636975700231,7957.636975700231,0.0,0.0
7957.641975700231,7957.641975700231,0.0,0.0
7957.646975700231,7957.646975700231,0.0,0.0
7957.651975700232,7957.651975700232,0.0,0.0
7957.656975700232,7957.656975700232,-0.035484466712158914,0.0
7957.661975700232,7957.661975700232,0.0,0.0
7957.666975700232,7957.666975700232,0.0,0.0
7957.671975700232,7957.671975700232,0.0,0.0
7957.676975700232,7957.676975700232,0.0,0.0
7957.681975700232,7957.681975700232,0.004566560209757849,0.0
7957.686975700232,7957.686975700232,0.0,0.0
7957.691975700232,7957.691975700232,0.0,0.0
7957.6969757002325,7957.6969757002325,0.0,0.0
7957.701975700233,7957.701975700233,0.0,0.0
7957.706975700233,7957.706975700233,0.0,0.0
7957.711975700233,7957.711975700233,0.1047244399043208,0.0
7957.716975700233,7957.716975700233,0.0,0.0
7957.721975700233,7957.721975700233,0.0,0.0
7957.726975700233,7957.726975700233,0.0,0.0
7957.731975700233,7957.731975700233,0.0,0.0
7957.736975700233,7957.736975700233,-0.16684678934449604,0.0
7957.7419757002335,7957.7419757002335,0.0,0.0
7957.746975700234,7957.746975700234,0.0,0.0
7957.751975700234,7957.751975700234,0.0,0.0
7957.756975700234,7957.756975700234,0.0,0.0
7957.761975700234,7957.761975700234,0.0,0.0
7957.766975700234,7957.766975700234,0.0,0.0
7957.771975700234,7957.771975700234,0.0,0.0
7957.776975700234,7957.776975700234,0.0,0.0
7957.781975700234,7957.781975700234,0.0,0.0
7957.7869757002345,7957.7869757002345,0.0,0.0
7957.791975700235,7957.791975700235,0.05791199547779131,0.0
7957.796975700235,7957.796975700235,0.0,0.0
7957.801975700235,7957.801975700235,0.0,0.0
7957.806975700235,7957.806975700235,0.0,0.0
7957.811975700235,7957.811975700235,0.0,0.0
7957.816975700235,7957.816975700235,0.0,0.0
7957.821975700235,7957.821975700235,0.0,0.0
7957.826975700235,7957.826975700235,0.0,0.0
7957.8319757002355,7957.8319757002355,0.0,0.0
7957.836975700236,7957.836975700236,0.0,0.0
7957.841975700236,7957.841975700236,0.0,0.0
7957.846975700236,7957.846975700236,0.0,0.0
7957.851975700236,7957.851975700236,0.0,0.0
7957.856975700236,7957.856975700236,0.0,0.0
7957.861975700236,7957.861975700236,0.0,0.0
7957.866975700236,7957.866975700236,0.0,0.0
7957.871975700236,7957.871975700236,0.033684787585605405,0.0
7957.8769757002365,7957.8769757002365,0.0,0.0
7957.881975700237,7957.881975700237,0.0,0.0
7957.886975700237,7957.886975700237,0.0,0.0
7957.891975700237,7957.891975700237,0.0,0.0
7957.896975700237,7957.896975700237,0.0,0.0
7957.901975700237,7957.901975700237,0.0,0.0
7957.906975700237,7957.906975700237,0.0,0.0
7957.911975700237,7957.911975700237,0.0,0.0
7957.916975700237,7957.916975700237,0.0,0.0
7957.921975700237,7957.921975700237,0.0,0.0
7957.926975700238,7957.926975700238,0.26620241263599176,0.0
7957.931975700238,7957.931975700238,0.0,0.0
7957.936975700238,7957.936975700238,0.0,0.0
7957.941975700238,7957.941975700238,0.0,0.0
7957.946975700238,7957.946975700238,0.0,0.0
7957.951975700238,7957.951975700238,0.0,0.0
7957.956975700238,7957.956975700238,0.0,0.0
7957.961975700238,7957.961975700238,0.0,0.0
7957.966975700238,7957.966975700238,0.0,0.0
7957.9719757002385,7957.9719757002385,0.0,0.0
7957.976975700239,7957.976975700239,0.0,0.0
7957.981975700239,7957.981975700239,-0.002045918047671208,0.0
7957.986975700239,7957.986975700239,0.0,0.0
7957.991975700239,7957.991975700239,0.0,0.0
7957.996975700239,7957.996975700239,0.0,0.0
7958.001975700239,7958.001975700239,0.0,0.0
7958.006975700239,7958.006975700239,0.06015786458689539,0.0
7958.011975700239,7958.011975700239,0.0,0.0
7958.0169757002395,7958.0169757002395,0.0,0.0
7958.02197570024,7958.02197570024,0.0,0.0
7958.02697570024,7958.02697570024,0.0,0.0
7958.03197570024,7958.03197570024,0.0,0.0
7958.03697570024,7958.03697570024,0.0,0.0
7958.04197570024,7958.04197570024,0.0,0.0
7958.04697570024,7958.04697570024,0.0,0.0
7958.05197570024,7958.05197570024,0.0,0.0
7958.05697570024,7958.05697570024,0.0,0.0
7958.0619757002405,7958.0619757002405,-0.07803403864824174,0.0
7958.066975700241,7958.066975700241,0.0,0.0
7958.071975700241,7958.071975700241,0.0,0.0
7958.076975700241,7958.076975700241,0.0,0.0
7958.081975700241,7958.081975700241,0.0,0.0
7958.086975700241,7958.086975700241,0.0,0.0
7958.091975700241,7958.091975700241,0.0,0.0
7958.096975700241,7958.096975700241,0.0,0.0
7958.101975700241,7958.101975700241,0.0,0.0
7958.1069757002415,7958.1069757002415,0.0,0.0
7958.111975700242,7958.111975700242,0.0,0.0
7958.116975700242,7958.116975700242,-0.030796895561456802,0.0
7958.121975700242,7958.121975700242,0.0,0.0
7958.126975700242,7958.126975700242,0.0,0.0
7958.131975700242,7958.131975700242,0.0,0.0
7958.136975700242,7958.136975700242,0.0,0.0
7958.141975700242,7958.141975700242,0.017618888919701047,0.0
7958.146975700242,7958.146975700242,0.0,0.0
7958.1519757002425,7958.1519757002425,0.0,0.0
7958.156975700243,7958.156975700243,0.0,0.0
7958.161975700243,7958.161975700243,0.0,0.0
7958.166975700243,7958.166975700243,0.0,0.0
7958.171975700243,7958.171975700243,0.0,0.0
7958.176975700243,7958.176975700243,0.0,0.0
7958.181975700243,7958.181975700243,0.0,0.0
7958.186975700243,7958.186975700243,0.0,0.0
7958.191975700243,7958.191975700243,0.0,0.0
7958.1969757002435,7958.1969757002435,-0.08475687790530084,0.0
7958.201975700244,7958.201975700244,0.0,0.0
7958.206975700244,7958.206975700244,0.0,0.0
7958.211975700244,7958.211975700244,0.0,0.0
7958.216975700244,7958.216975700244,0.0,0.0
7958.221975700244,7958.221975700244,0.0,0.0
7958.226975700244,7958.226975700244,0.0,0.0
7958.231975700244,7958.231975700244,0.0,0.0
7958.236975700244,7958.236975700244,0.0,0.0
7958.241975700244,7958.241975700244,0.0,0.0
7958.246975700245,7958.246975700245,0.0,0.0
7958.251975700245,7958.251975700245,0.0,0.0
7958.256975700245,7958.256975700245,0.0,0.0
7958.261975700245,7958.261975700245,0.0,0.0
7958.266975700245,7958.266975700245,0.0,0.0
7958.271975700245,7958.271975700245,0.0,0.0
7958.276975700245,7958.276975700245,-0.11004410783092082,0.0
7958.281975700245,7958.281975700245,0.0,0.0
7958.286975700245,7958.286975700245,0.0,0.0
7958.2919757002455,7958.2919757002455,0.0,0.0
7958.296975700246,7958.296975700246,0.0,0.0
7958.301975700246,7958.301975700246,0.0,0.0
7958.306975700246,7958.306975700246,0.0,0.0
7958.311975700246,7958.311975700246,0.0,0.0
7958.316975700246,7958.316975700246,0.0,0.0
7958.321975700246,7958.321975700246,0.0,0.0
7958.326975700246,7958.326975700246,0.0,0.0
7958.331975700246,7958.331975700246,0.048532832879826224,0.0
7958.3369757002465,7958.3369757002465,0.0,0.0
7958.341975700247,7958.341975700247,0.0,0.0
7958.346975700247,7958.346975700247,0.0,0.0
7958.351975700247,7958.351975700247,0.0,0.0
7958.356975700247,7958.356975700247,0.0,0.0
7958.361975700247,7958.361975700247,0.0,0.0
7958.366975700247,7958.366975700247,0.0,0.0
7958.371975700247,7958.371975700247,0.0,0.0
7958.376975700247,7958.376975700247,0.0,0.0
7958.3819757002475,7958.3819757002475,0.0,0.0
7958.386975700248,7958.386975700248,0.21796080864429074,0.0
7958.391975700248,7958.391975700248,0.0,0.0
7958.396975700248,7958.396975700248,0.0,0.0
7958.401975700248,7958.401975700248,0.0,0.0
7958.406975700248,7958.406975700248,0.0,0.0
7958.411975700248,7958.411975700248,0.0023572663303496333,0.0
7958.416975700248,7958.416975700248,0.0,0.0
7958.421975700248,7958.421975700248,0.0,0.0
7958.4269757002485,7958.4269757002485,0.0,0.0
7958.431975700249,7958.431975700249,0.0,0.0
7958.436975700249,7958.436975700249,0.0,0.0
7958.441975700249,7958.441975700249,0.0,0.0
7958.446975700249,7958.446975700249,0.0,0.0
7958.451975700249,7958.451975700249,0.0,0.0
7958.456975700249,7958.456975700249,0.0,0.0
7958.461975700249,7958.461975700249,0.0,0.0
7958.466975700249,7958.466975700249,0.184857079974656,0.0
7958.4719757002495,7958.4719757002495,0.0,0.0
7958.47697570025,7958.47697570025,0.0,0.0
7958.48197570025,7958.48197570025,0.0,0.0
7958.48697570025,7958.48697570025,0.0,0.0
7958.49197570025,7958.49197570025,0.0,0.0
7958.49697570025,7958.49697570025,0.0,0.0
7958.50197570025,7958.50197570025,0.0,0.0
7958.50697570025,7958.50697570025,0.0,0.0
7958.51197570025,7958.51197570025,0.0,0.0
7958.51697570025,7958.51697570025,0.0,0.0
7958.521975700251,7958.521975700251,0.0,0.0
7958.526975700251,7958.526975700251,0.0,0.0
7958.531975700251,7958.531975700251,0.0,0.0
7958.536975700251,7958.536975700251,0.0,0.0
7958.541975700251,7958.541975700251,0.0,0.0
7958.546975700251,7958.546975700251,0.0,0.0
7958.551975700251,7958.551975700251,0.0,0.0
7958.556975700251,7958.556975700251,0.0,0.0
7958.561975700251,7958.561975700251,0.0,0.0
7958.5669757002515,7958.5669757002515,0.0,0.0
7958.571975700252,7958.571975700252,0.0,0.0
7958.576975700252,7958.576975700252,0.0,0.0
7958.581975700252,7958.581975700252,0.0,0.0
7958.586975700252,7958.586975700252,0.0,0.0
7958.591975700252,7958.591975700252,0.0,0.0
7958.596975700252,7958.596975700252,0.0,0.0
7958.601975700252,7958.601975700252,0.020062216585044586,0.0
7958.606975700252,7958.606975700252,0.0,0.0
7958.6119757002525,7958.6119757002525,0.0,0.0
7958.616975700253,7958.616975700253,0.0,0.0
7958.621975700253,7958.621975700253,0.0,0.0
7958.626975700253,7958.626975700253,0.0,0.0
7958.631975700253,7958.631975700253,0.0,0.0
7958.636975700253,7958.636975700253,0.0,0.0
7958.641975700253,7958.641975700253,0.0,0.0
7958.646975700253,7958.646975700253,0.0,0.0
7958.651975700253,7958.651975700253,0.0,0.0
7958.6569757002535,7958.6569757002535,0.0,0.0
7958.661975700254,7958.661975700254,0.0,0.0
7958.666975700254,7958.666975700254,0.0,0.0
7958.671975700254,7958.671975700254,0.0,0.0
7958.676975700254,7958.676975700254,0.0,0.0
7958.681975700254,7958.681975700254,0.0,0.0
7958.686975700254,7958.686975700254,0.0,0.0
7958.691975700254,7958.691975700254,0.0,0.0
7958.696975700254,7958.696975700254,0.0,0.0
7958.7019757002545,7958.7019757002545,0.0,0.0
7958.706975700255,7958.706975700255,0.0,0.0
7958.711975700255,7958.711975700255,0.0,0.0
7958.716975700255,7958.716975700255,0.0,0.0
7958.721975700255,7958.721975700255,0.0,0.0
7958.726975700255,7958.726975700255,0.0,0.0
7958.731975700255,7958.731975700255,0.0,0.0
7958.736975700255,7958.736975700255,-0.1940647966975992,0.0
7958.741975700255,7958.741975700255,0.0,0.0
7958.7469757002555,7958.7469757002555,0.0,0.0
7958.751975700256,7958.751975700256,0.0,0.0
7958.756975700256,7958.756975700256,0.0,0.0
7958.761975700256,7958.761975700256,0.0,0.0
7958.766975700256,7958.766975700256,0.0,0.0
7958.771975700256,7958.771975700256,0.0,0.0
7958.776975700256,7958.776975700256,0.0,0.0
7958.781975700256,7958.781975700256,0.0,0.0
7958.786975700256,7958.786975700256,0.0,0.0
7958.791975700256,7958.791975700256,0.0004146648555809207,0.0
7958.796975700257,7958.796975700257,0.0,0.0
7958.801975700257,7958.801975700257,0.0,0.0
7958.806975700257,7958.806975700257,0.0,0.0
7958.811975700257,7958.811975700257,0.0,0.0
7958.816975700257,7958.816975700257,0.0,0.0
7958.821975700257,7958.821975700257,0.0,0.0
7958.826975700257,7958.826975700257,0.0,0.0
7958.831975700257,7958.831975700257,0.0,0.0
7958.836975700257,7958.836975700257,0.0,0.0
7958.8419757002575,7958.8419757002575,0.0,0.0
7958.846975700258,7958.846975700258,0.0,0.0
7958.851975700258,7958.851975700258,0.0,0.0
7958.856975700258,7958.856975700258,0.0,0.0
7958.861975700258,7958.861975700258,0.0,0.0
7958.866975700258,7958.866975700258,0.0,0.0
7958.871975700258,7958.871975700258,0.025177392596919965,0.0
7958.876975700258,7958.876975700258,0.0,0.0
7958.881975700258,7958.881975700258,0.0,0.0
7958.8869757002585,7958.8869757002585,0.0,0.0
7958.891975700259,7958.891975700259,0.0,0.0
7958.896975700259,7958.896975700259,0.0,0.0
7958.901975700259,7958.901975700259,0.0,0.0
7958.906975700259,7958.906975700259,0.0,0.0
7958.911975700259,7958.911975700259,0.0,0.0
7958.916975700259,7958.916975700259,0.0,0.0
7958.921975700259,7958.921975700259,0.0,0.0
7958.926975700259,7958.926975700259,0.0,0.0
7958.9319757002595,7958.9319757002595,0.0,0.0
7958.93697570026,7958.93697570026,0.0,0.0
7958.94197570026,7958.94197570026,0.0,0.0
7958.94697570026,7958.94697570026,0.0,0.0
7958.95197570026,7958.95197570026,0.00043328194725400396,0.0
7958.95697570026,7958.95697570026,0.0,0.0
7958.96197570026,7958.96197570026,0.0,0.0
7958.96697570026,7958.96697570026,0.0,0.0
7958.97197570026,7958.97197570026,0.0,0.0
7958.9769757002605,7958.9769757002605,0.0,0.0
7958.981975700261,7958.981975700261,0.0,0.0
7958.986975700261,7958.986975700261,0.0,0.0
7958.991975700261,7958.991975700261,0.0,0.0
7958.996975700261,7958.996975700261,0.0,0.0
7959.001975700261,7959.001975700261,0.0,0.0
7959.006975700261,7959.006975700261,0.10160775564273682,0.0
7959.011975700261,7959.011975700261,0.0,0.0
7959.016975700261,7959.016975700261,0.0,0.0
7959.0219757002615,7959.0219757002615,0.0,0.0
7959.026975700262,7959.026975700262,0.0,0.0
7959.031975700262,7959.031975700262,0.0,0.0
7959.036975700262,7959.036975700262,0.0,0.0
7959.041975700262,7959.041975700262,0.0,0.0
7959.046975700262,7959.046975700262,0.0,0.0
7959.051975700262,7959.051975700262,0.0,0.0
7959.056975700262,7959.056975700262,0.0,0.0
7959.061975700262,7959.061975700262,0.0,0.0
7959.066975700262,7959.066975700262,0.0,0.0
7959.071975700263,7959.071975700263,0.0,0.0
7959.076975700263,7959.076975700263,0.0,0.0
7959.081975700263,7959.081975700263,0.0,0.0
7959.086975700263,7959.086975700263,0.13543322025372023,0.0
7959.091975700263,7959.091975700263,0.0,0.0
7959.096975700263,7959.096975700263,0.0,0.0
7959.101975700263,7959.101975700263,0.0,0.0
7959.106975700263,7959.106975700263,0.0,0.0
7959.111975700263,7959.111975700263,0.0,0.0
7959.1169757002635,7959.1169757002635,0.0,0.0
7959.121975700264,7959.121975700264,0.0,0.0
7959.126975700264,7959.126975700264,0.0,0.0
7959.131975700264,7959.131975700264,0.0,0.0
7959.136975700264,7959.136975700264,0.0,0.0
7959.141975700264,7959.141975700264,0.13920804446954368,0.0
7959.146975700264,7959.146975700264,0.0,0.0
7959.151975700264,7959.151975700264,0.0,0.0
7959.156975700264,7959.156975700264,0.0,0.0
7959.1619757002645,7959.1619757002645,0.0,0.0
7959.166975700265,7959.166975700265,0.0,0.0
7959.171975700265,7959.171975700265,0.0,0.0
7959.176975700265,7959.176975700265,0.0,0.0
7959.181975700265,7959.181975700265,0.0,0.0
7959.186975700265,7959.186975700265,0.0,0.0
7959.191975700265,7959.191975700265,0.0,0.0
7959.196975700265,7959.196975700265,-0.1272589287317923,0.0
7959.201975700265,7959.201975700265,0.0,0.0
7959.2069757002655,7959.2069757002655,0.0,0.0
7959.211975700266,7959.211975700266,0.0,0.0
7959.216975700266,7959.216975700266,0.0,0.0
7959.221975700266,7959.221975700266,0.1799381903056986,0.0
7959.226975700266,7959.226975700266,0.0,0.0
7959.231975700266,7959.231975700266,0.0,0.0
7959.236975700266,7959.236975700266,0.0,0.0
7959.241975700266,7959.241975700266,0.0,0.0
7959.246975700266,7959.246975700266,0.0,0.0
7959.2519757002665,7959.2519757002665,0.0,0.0
7959.256975700267,7959.256975700267,0.0,0.0
7959.261975700267,7959.261975700267,0.0,0.0
7959.266975700267,7959.266975700267,0.0,0.0
7959.271975700267,7959.271975700267,0.0,0.0
7959.276975700267,7959.276975700267,-0.1477500127223093,0.0
7959.281975700267,7959.281975700267,0.0,0.0
7959.286975700267,7959.286975700267,0.0,0.0
7959.291975700267,7959.291975700267,0.0,0.0
7959.2969757002675,7959.2969757002675,0.0,0.0
7959.301975700268,7959.301975700268,0.0,0.0
7959.306975700268,7959.306975700268,0.0,0.0
7959.311975700268,7959.311975700268,0.0,0.0
7959.316975700268,7959.316975700268,0.0,0.0
7959.321975700268,7959.321975700268,0.0,0.0
7959.326975700268,7959.326975700268,0.0,0.0
7959.331975700268,7959.331975700268,0.01442344214886803,0.0
7959.336975700268,7959.336975700268,0.0,0.0
7959.341975700268,7959.341975700268,0.0,0.0
7959.346975700269,7959.346975700269,0.0,0.0
7959.351975700269,7959.351975700269,0.0,0.0
7959.356975700269,7959.356975700269,-0.07271010962345491,0.0
7959.361975700269,7959.361975700269,0.0,0.0
7959.366975700269,7959.366975700269,0.0,0.0
7959.371975700269,7959.371975700269,0.0,0.0
7959.376975700269,7959.376975700269,0.0,0.0
7959.381975700269,7959.381975700269,0.0,0.0
7959.386975700269,7959.386975700269,0.0,0.0
7959.3919757002695,7959.3919757002695,0.0,0.0
7959.39697570027,7959.39697570027,0.0,0.0
7959.40197570027,7959.40197570027,0.0,0.0
7959.40697570027,7959.40697570027,0.0,0.0
7959.41197570027,7959.41197570027,0.0023761186124582443,0.0
7959.41697570027,7959.41697570027,0.0,0.0
7959.42197570027,7959.42197570027,0.0,0.0
7959.42697570027,7959.42697570027,0.0,0.0
7959.43197570027,7959.43197570027,0.0,0.0
7959.4369757002705,7959.4369757002705,-0.010521831342154621,0.0
7959.441975700271,7959.441975700271,0.0,0.0
7959.446975700271,7959.446975700271,0.0,0.0
7959.451975700271,7959.451975700271,0.0,0.0
7959.456975700271,7959.456975700271,0.0,0.0
7959.461975700271,7959.461975700271,0.0,0.0
7959.466975700271,7959.466975700271,0.0,0.0
7959.471975700271,7959.471975700271,0.0,0.0
7959.476975700271,7959.476975700271,0.0,0.0
7959.4819757002715,7959.4819757002715,0.0,0.0
7959.486975700272,7959.486975700272,0.0,0.0
7959.491975700272,7959.491975700272,0.0,0.0
7959.496975700272,7959.496975700272,-0.04004231879437587,0.0
7959.501975700272,7959.501975700272,0.0,0.0
7959.506975700272,7959.506975700272,0.0,0.0
7959.511975700272,7959.511975700272,0.0,0.0
7959.516975700272,7959.516975700272,0.0,0.0
7959.521975700272,7959.521975700272,0.0,0.0
7959.5269757002725,7959.5269757002725,0.0,0.0
7959.531975700273,7959.531975700273,0.0,0.0
7959.536975700273,7959.536975700273,0.0,0.0
7959.541975700273,7959.541975700273,0.0,0.0
7959.546975700273,7959.546975700273,0.003967478543124459,0.0
7959.551975700273,7959.551975700273,0.0,0.0
7959.556975700273,7959.556975700273,0.0,0.0
7959.561975700273,7959.561975700273,0.0,0.0
7959.566975700273,7959.566975700273,0.0,0.0
7959.5719757002735,7959.5719757002735,0.0,0.0
7959.576975700274,7959.576975700274,0.0,0.0
7959.581975700274,7959.581975700274,0.0,0.0
7959.586975700274,7959.586975700274,0.0,0.0
7959.591975700274,7959.591975700274,0.0,0.0
7959.596975700274,7959.596975700274,0.0,0.0
7959.601975700274,7959.601975700274,0.10238642975762019,0.0
7959.606975700274,7959.606975700274,0.0,0.0
7959.611975700274,7959.611975700274,0.0,0.0
7959.616975700274,7959.616975700274,0.0,0.0
7959.621975700275,7959.621975700275,0.0,0.0
7959.626975700275,7959.626975700275,0.03677455156216603,0.0
7959.631975700275,7959.631975700275,0.0,0.0
7959.636975700275,7959.636975700275,0.0,0.0
7959.641975700275,7959.641975700275,0.0,0.0
7959.646975700275,7959.646975700275,0.0,0.0
7959.651975700275,7959.651975700275,0.0,0.0
7959.656975700275,7959.656975700275,0.0,0.0
7959.661975700275,7959.661975700275,0.0,0.0
7959.6669757002755,7959.6669757002755,0.0,0.0
7959.671975700276,7959.671975700276,0.0,0.0
7959.676975700276,7959.676975700276,0.0,0.0
7959.681975700276,7959.681975700276,0.13443724598769746,0.0
7959.686975700276,7959.686975700276,0.0,0.0
7959.691975700276,7959.691975700276,0.0,0.0
7959.696975700276,7959.696975700276,0.0,0.0
7959.701975700276,7959.701975700276,0.0,0.0
7959.706975700276,7959.706975700276,0.0,0.0
7959.7119757002765,7959.7119757002765,0.0,0.0
7959.716975700277,7959.716975700277,0.0,0.0
7959.721975700277,7959.721975700277,0.0,0.0
7959.726975700277,7959.726975700277,0.0,0.0
7959.731975700277,7959.731975700277,0.0,0.0
7959.736975700277,7959.736975700277,-0.08421451679180825,0.0
7959.741975700277,7959.741975700277,0.0,0.0
7959.746975700277,7959.746975700277,0.0,0.0
7959.751975700277,7959.751975700277,0.0,0.0
7959.7569757002775,7959.7569757002775,0.0,0.0
7959.761975700278,7959.761975700278,0.15368791158678144,0.0
7959.766975700278,7959.766975700278,0.0,0.0
7959.771975700278,7959.771975700278,0.0,0.0
7959.776975700278,7959.776975700278,0.0,0.0
7959.781975700278,7959.781975700278,0.0,0.0
7959.786975700278,7959.786975700278,0.0,0.0
7959.791975700278,7959.791975700278,0.0,0.0
7959.796975700278,7959.796975700278,0.0,0.0
7959.8019757002785,7959.8019757002785,0.0,0.0
7959.806975700279,7959.806975700279,0.0,0.0
7959.811975700279,7959.811975700279,0.0,0.0
7959.816975700279,7959.816975700279,-0.202678806507875,0.0
7959.821975700279,7959.821975700279,0.0,0.0
7959.826975700279,7959.826975700279,0.0,0.0
7959.831975700279,7959.831975700279,0.0,0.0
7959.836975700279,7959.836975700279,0.0,0.0
7959.841975700279,7959.841975700279,0.0,0.0
7959.8469757002795,7959.8469757002795,0.0,0.0
7959.85197570028,7959.85197570028,0.0,0.0
7959.85697570028,7959.85697570028,0.0,0.0
7959.86197570028,7959.86197570028,0.0,0.0
7959.86697570028,7959.86697570028,0.0,0.0
7959.87197570028,7959.87197570028,0.0005528795779586324,0.0
7959.87697570028,7959.87697570028,0.0,0.0
7959.88197570028,7959.88197570028,0.0,0.0
7959.88697570028,7959.88697570028,0.0,0.0
7959.89197570028,7959.89197570028,0.0,0.0
7959.896975700281,7959.896975700281,-0.07413562656710034,0.0
7959.901975700281,7959.901975700281,0.0,0.0
7959.906975700281,7959.906975700281,0.0,0.0
7959.911975700281,7959.911975700281,0.0,0.0
7959.916975700281,7959.916975700281,0.0,0.0
7959.921975700281,7959.921975700281,0.0,0.0
7959.926975700281,7959.926975700281,0.0,0.0
7959.931975700281,7959.931975700281,0.0,0.0
7959.936975700281,7959.936975700281,0.0,0.0
7959.941975700282,7959.941975700282,0.0,0.0
7959.946975700282,7959.946975700282,0.0,0.0
7959.951975700282,7959.951975700282,-0.016092861422519124,0.0
7959.956975700282,7959.956975700282,0.0,0.0
7959.961975700282,7959.961975700282,0.0,0.0
7959.966975700282,7959.966975700282,0.0,0.0
7959.971975700282,7959.971975700282,0.0,0.0
7959.976975700282,7959.976975700282,0.0,0.0
7959.981975700282,7959.981975700282,0.0,0.0
7959.9869757002825,7959.9869757002825,0.0,0.0
7959.991975700283,7959.991975700283,0.0,0.0
7959.996975700283,7959.996975700283,0.0,0.0
7960.001975700283,7960.001975700283,0.0,0.0
7960.006975700283,7960.006975700283,0.01733393147431217,0.0
7960.011975700283,7960.011975700283,0.0,0.0
7960.016975700283,7960.016975700283,0.0,0.0
7960.021975700283,7960.021975700283,0.0,0.0
7960.026975700283,7960.026975700283,0.0,0.0
7960.0319757002835,7960.0319757002835,-0.10113531424227053,0.0
7960.036975700284,7960.036975700284,0.0,0.0
7960.041975700284,7960.041975700284,0.0,0.0
7960.046975700284,7960.046975700284,0.0,0.0
7960.051975700284,7960.051975700284,0.0,0.0
7960.056975700284,7960.056975700284,0.0,0.0
7960.061975700284,7960.061975700284,0.0,0.0
7960.066975700284,7960.066975700284,0.0,0.0
7960.071975700284,7960.071975700284,0.0,0.0
7960.0769757002845,7960.0769757002845,0.0,0.0
7960.081975700285,7960.081975700285,0.0,0.0
7960.086975700285,7960.086975700285,0.05026371299428149,0.0
7960.091975700285,7960.091975700285,0.0,0.0
7960.096975700285,7960.096975700285,0.0,0.0
7960.101975700285,7960.101975700285,0.0,0.0
7960.106975700285,7960.106975700285,0.0,0.0
7960.111975700285,7960.111975700285,0.0,0.0
7960.116975700285,7960.116975700285,0.0,0.0
7960.1219757002855,7960.1219757002855,0.0,0.0
7960.126975700286,7960.126975700286,0.0,0.0
7960.131975700286,7960.131975700286,0.0,0.0
7960.136975700286,7960.136975700286,0.0,0.0
7960.141975700286,7960.141975700286,0.0,0.0
7960.146975700286,7960.146975700286,0.0,0.0
7960.151975700286,7960.151975700286,0.0,0.0
7960.156975700286,7960.156975700286,0.0,0.0
7960.161975700286,7960.161975700286,0.0,0.0
7960.1669757002865,7960.1669757002865,0.0,0.0
7960.171975700287,7960.171975700287,0.0,0.0
7960.176975700287,7960.176975700287,0.0,0.0
7960.181975700287,7960.181975700287,0.0,0.0
7960.186975700287,7960.186975700287,0.0,0.0
7960.191975700287,7960.191975700287,0.0,0.0
7960.196975700287,7960.196975700287,-0.01595930676786178,0.0
7960.201975700287,7960.201975700287,0.0,0.0
7960.206975700287,7960.206975700287,0.0,0.0
7960.211975700287,7960.211975700287,0.0,0.0
7960.216975700288,7960.216975700288,0.0,0.0
7960.221975700288,7960.221975700288,0.07373101201739855,0.0
7960.226975700288,7960.226975700288,0.0,0.0
