timestamp,sample_timestamp,unityTimestamp,localTimestamp,emg1,emg2,rms1,rms2,left_processed,right_processed
154158.1061439,154158.1061439,154158.1061439,154158.1061439,0.05244251722693447,0.16634860054878037,0.05244251722693447,0.16634860054878037,0.0,0.14280278628148302
154158.1111439,154158.1111439,154158.1111439,154158.1111439,0.05124266622029291,0.1660491064790953,0.051846062793917465,0.1661989209758048,0.0,0.14157036360529937
154158.1161439,154158.1161439,154158.1161439,154158.1161439,0.05004268940971736,0.16573799219757915,0.05125198928763352,0.16604542021660662,0.0,0.1403064782755482
154158.1211439,154158.1211439,154158.1211439,154158.1211439,0.051157291678273785,0.16541517584510898,0.05122833129644934,0.1658880836020152,0.0,0.13901100951009365
154158.1261439,154158.1261439,154158.1261439,154158.1261439,0.05235715631284923,0.42564950110995103,0.051456077438614016,0.2413515787890135,0.0,0.7603578028211142
154158.1311439,154158.1311439,154158.1311439,154158.1311439,0.05355672596197443,0.1647331753372976,0.0518121002961812,0.23035839539597705,0.0,0.6698427897990297
154158.13614390002,154158.13614390002,154158.13614390002,154158.13614390002,0.05475606131926507,0.1643778109431848,0.05224282407840246,0.22213573929563532,0.0,0.6021395779641384
154158.14114390002,154158.14114390002,154158.14114390002,154158.14114390002,0.05595484336597868,0.6745268873163922,0.05272112144330719,0.3163061271181113,0.0,1.0
154158.14614390003,154158.14614390003,154158.14614390003,154158.14614390003,0.05715306464776887,0.16362901112598938,0.05323178454076684,0.30316313571367615,0.0,1.0
154158.15114390003,154158.15114390003,154158.15114390003,154158.15114390003,0.7201574381971019,0.16323754917216293,0.23326580155675716,0.2922015535827066,0.9275383624509397,1.0
154158.15614390004,154158.15614390004,154158.15614390004,154158.15614390004,0.059547200786256034,0.16283467740297536,0.22313371671400065,0.28289616008936835,0.8354173927338052,1.0
154158.16114390004,154158.16114390004,154158.16114390004,154158.16114390004,0.06074290168841484,0.16242062428427448,0.21435269047883274,0.2748807424016365,0.7555802551210496,1.0
154158.16614390005,154158.16614390005,154158.16614390005,154158.16614390005,0.06193752884113444,0.16199533066107166,0.2066586126674241,0.26789141854279,0.6856256584051756,0.9788799410434973
154158.17114390005,154158.17114390005,154158.17114390005,154158.17114390005,0.0631309534457421,0.16155875575377687,0.1998547125410439,0.2617327957555181,0.6237645619745857,0.9281714427079619
154158.17614390005,154158.17614390005,154158.17614390005,154158.17614390005,0.06432307996952652,0.1611111501092444,0.19379097749290808,0.25625684926462877,0.5686330504040533,0.8830839234507961
154158.18114390006,154158.18114390006,154158.18114390006,154158.18114390006,0.06551375122054799,0.16065225756410767,0.1883507691721486,0.2513492017823466,0.5191706471820879,0.8426756304309638
154158.18614390006,154158.18614390006,154158.18614390006,154158.18614390006,0.06670288326574615,0.16018239482462931,0.1886324556158594,0.2510987458268634,0.5217317418386689,0.8406134412304835
154158.19114390007,154158.19114390007,154158.19114390007,154158.19114390007,0.0678903324954478,0.1597014376195954,0.18896073325424065,0.2508412752504609,0.5247164438870091,0.8384934954656709
154158.19614390007,154158.19614390007,154158.19614390007,154158.19614390007,0.06907601295398662,0.1592096367456711,0.1893353117147503,0.2505768535154738,0.528122113258399,0.8363163156688852
154158.20114390008,154158.20114390008,154158.20114390008,154158.20114390008,0.09118368746350336,0.15870696325664968,0.19027334951352431,0.250305547290422,0.5366507579544771,0.8340824507713801
154158.20614390008,154158.20614390008,154158.20614390008,154158.20614390008,0.07144151972358778,0.24870703381951498,0.1906609850436076,0.23493663546607013,0.5401751422724407,0.7075388278570505
154158.2111439001,154158.2111439001,154158.2111439001,154158.2111439001,0.4130045998696671,0.15766869677277293,0.21640966015039018,0.23463348570579043,0.7742822344040275,0.7050427715721402
154158.2161439001,154158.2161439001,154158.2161439001,154158.2161439001,0.07379846323886488,0.15713362873960415,0.21676286625996058,0.23432307749952735,0.7774935862460823,0.7024869511307327
154158.2211439001,154158.2211439001,154158.2211439001,154158.2211439001,0.07497339394083126,0.15658759202919023,0.21712155413653558,0.16734134774584836,0.7807547783431354,0.15097680851485787
154158.2261439001,154158.2261439001,154158.2261439001,154158.2261439001,0.07614587568975988,0.1560311016792874,0.21748563600795587,0.16688717709420003,0.7840650126702438,0.14723728548695705
154158.2311439001,154158.2311439001,154158.2311439001,154158.2311439001,0.07731570080195713,0.15546383596195024,0.12352909872689061,0.16642261431514574,0.0,0.1434121963847129
154158.2361439001,154158.2361439001,154158.2361439001,154158.2361439001,0.07848281016548672,0.15488608875936885,0.1241885396500114,0.16594772392496984,0.0,0.13950207241843188
154158.24114390012,154158.24114390012,154158.24114390012,154158.24114390012,0.07964687853212933,0.15429717370637572,0.12485457021091144,0.16546251687220018,0.0,0.13550700373544483
154158.24614390012,154158.24614390012,154158.24614390012,154158.24614390012,0.08080836688824725,0.1536991850639018,0.12552697765844548,0.16496713009116537,0.0,0.1314281178174006
154158.25114390012,154158.25114390012,154158.25114390012,154158.25114390012,0.08196659461319258,0.1530901893711474,0.12620552663971793,0.16446159101163121,0.0,0.12726564051385697
154158.25614390013,154158.25614390013,154158.25614390013,154158.25614390013,0.08312164273695416,0.152470935083931,0.1268899888055251,0.16394595566166725,0.0,0.1230200331453672
154158.26114390013,154158.26114390013,154158.26114390013,154158.26114390013,0.08427335597566661,0.15184135872194565,0.12758013537417232,0.16342029257469068,0.0,0.11869185999826468
154158.26614390014,154158.26614390014,154158.26614390014,154158.26614390014,0.08542159762264803,0.15120147083432317,0.12827573566781736,0.16288465197300458,0.0,0.1142815345899316
154158.27114390014,154158.27114390014,154158.27114390014,154158.27114390014,0.08656636403109591,0.15055165572994142,0.1289765647106912,0.16233911447936894,0.0,0.10978972074720568
154158.27614390015,154158.27614390015,154158.27614390015,154158.27614390015,0.08770740993444942,0.14989161086073724,0.12968239137044782,0.1617837283252067,0.0,0.10521681559507992
154158.28114390015,154158.28114390015,154158.28114390015,154158.28114390015,0.08884473203785241,0.1492217023678162,0.12958088295934223,0.16121856520812636,0.0,0.10056340947301576
154158.28614390016,154158.28614390016,154158.28614390016,154158.28614390016,0.08997815289229015,0.14854182924762432,0.13030048467721075,0.15331183472118176,0.0,0.035461446974942315
154158.29114390016,154158.29114390016,154158.29114390016,154158.29114390016,0.09110741293760119,0.14785171510198997,0.08268132425634857,0.15269925719485644,0.0,0.030417642938388587
154158.29614390017,154158.29614390017,154158.29614390017,154158.29614390017,0.09223284538730496,0.14715249383954024,0.08383015070827578,0.1520764383312087,0.0,0.025289514393823008
154158.30114390017,154158.30114390017,154158.30114390017,154158.30114390017,0.09335397515878152,0.1464433627326562,0.08497568091934266,0.15144344531025497,0.0,0.02007761448402896
154158.30614390018,154158.30614390018,154158.30614390018,154158.30614390018,0.09447077834874311,0.14572460092735431,0.08611779546809416,0.15080032921532938,0.0,0.014782363815894373
154158.31114390018,154158.31114390018,154158.31114390018,154158.31114390018,0.691557941296005,0.1449961862800676,0.1921807521123706,0.15014716081377202,0.553992872610408,0.009404345069292913
154158.31614390019,154158.31614390019,154158.31614390019,154158.31614390019,0.09669082773601131,0.14425820438927078,0.192698700760479,0.14948399735620302,0.5587020644961764,0.003944029630941158
154158.3211439002,154158.3211439002,154158.3211439002,154158.3211439002,0.09779388084428965,0.14351078631358044,0.19322018629453253,0.14881094873697878,0.5634434137679218,0.0
154158.3261439002,154158.3261439002,154158.3261439002,154158.3261439002,0.09889216668952384,0.14275404314563062,0.19374505070138315,0.14812799633448615,0.5682154837692558,0.0
154158.3311439002,154158.3311439002,154158.3311439002,154158.3311439002,0.09998564549100082,0.17836568394776087,0.19427315200064849,0.14988499005436873,0.57301698361378,0.007245699220045007
154158.3361439002,154158.3361439002,154158.3361439002,154158.3361439002,0.10107408249584585,0.14121303279249525,0.1948043383874831,0.14919406373970143,0.5778465330910258,0.0015567916367305538
154158.3411439002,154158.3411439002,154158.3411439002,154158.3411439002,0.10215725518462064,0.1404284903298885,0.1953384547287116,0.1484937416948233,0.582702721729331,0.0
154158.3461439002,154158.3461439002,154158.3461439002,154158.3461439002,0.1032354019129722,0.13963523863856483,0.19587535724290042,0.14778412809052954,0.5875842422671304,0.0
154158.35114390022,154158.35114390022,154158.35114390022,154158.35114390022,0.10430822449806008,0.13883301695149455,0.19641489243386615,0.14706528775523386,0.5924896991163013,0.0
154158.35614390022,154158.35614390022,154158.35614390022,154158.35614390022,0.10537559109565181,0.138021867158879,0.19695690914484693,0.1463373078302472,0.5974177179587549,0.0
154158.36114390023,154158.36114390023,154158.36114390023,154158.36114390023,0.4027425188409599,0.1372018322628587,0.22008244691333106,0.1456002551780922,0.8076752313456443,0.0
154158.36614390023,154158.36614390023,154158.36614390023,154158.36614390023,0.10749352749965771,0.13637311935497273,0.22057302156629421,0.1448542158458773,0.8121355387207765,0.0
154158.37114390024,154158.37114390024,154158.37114390024,154158.37114390024,0.10854395547958919,0.1355357953391783,0.22106567958769782,0.1440992981707423,0.8166147880929401,0.0
154158.37614390024,154158.37614390024,154158.37614390024,154158.37614390024,0.10958842395229322,0.1346897664237056,0.22156027396078362,0.143335533031085,0.8211116427849806,0.0
154158.38114390025,154158.38114390025,154158.38114390025,154158.38114390025,0.11062712133690987,0.13383553515957322,0.22205667565660248,0.14256303264957165,0.8256249296650007,0.0
154158.38614390025,154158.38614390025,154158.38614390025,154158.38614390025,0.11165965872906221,0.13297278202709512,0.22255474420413088,0.14178187337783918,0.8301533715697013,0.0
154158.39114390025,154158.39114390025,154158.39114390025,154158.39114390025,0.11268568554019114,0.1321012796625116,0.14294568554182394,0.14099212033593914,0.10634738335960044,0.0
154158.39614390026,154158.39614390026,154158.39614390026,154158.39614390026,0.11370613906656818,0.19300084880895857,0.14372618805681842,0.14458979607335384,0.1134437164108733,0.0
154158.40114390026,154158.40114390026,154158.40114390026,154158.40114390026,0.11471987082243636,0.13033509371930094,0.14450615898734911,0.1438078659451174,0.12053521629335118,0.0
154158.40614390027,154158.40614390027,154158.40614390027,154158.40614390027,0.11572715508390868,0.3736148957891815,0.14528540737882514,0.1677238449140726,0.12762014684686984,0.15412619072062178
154158.41114390027,154158.41114390027,154158.41114390027,154158.41114390027,0.11672778514629276,0.12853627536857004,0.1460637361044413,0.16484990660439242,0.13469671579345932,0.13046293011403987
154158.41614390028,154158.41614390028,154158.41614390028,154158.41614390028,0.11772180973469298,0.12762507278001584,0.14684096295215104,0.16415596735484528,0.1417632664602158,0.12474921480850949
154158.42114390028,154158.42114390028,154158.42114390028,154158.42114390028,0.11870903729827556,0.12670607892230126,0.14761690815267142,0.1634566409309387,0.14881816438385448,0.11899114291036503
154158.4261439003,154158.4261439003,154158.4261439003,154158.4261439003,0.11968944640192468,0.1257794723097755,0.1483913829482557,0.16275204515145308,0.15585969337793013,0.11318968450880272
154158.4311439003,154158.4311439003,154158.4311439003,154158.4311439003,0.12066274043704961,0.1248451306428696,0.1491641989060577,0.16204230760535024,0.1628861402099946,0.10734589013815164
154158.4361439003,154158.4361439003,154158.4361439003,154158.4361439003,0.12162917767152565,0.12390352656577415,0.1499351887956236,0.16132757811098267,0.16989598441986542,0.10146099336376249
154158.4411439003,154158.4411439003,154158.4411439003,154158.4411439003,0.12258818107269645,0.12295425348665907,0.11524845418790329,0.16060798645706015,0.0,0.09553606283211698
154158.4461439003,154158.4461439003,154158.4461439003,154158.4461439003,0.123540264359903,0.12199802681992038,0.11624936493025857,0.15988368738828698,0.0,0.0895723726708653
154158.4511439003,154158.4511439003,154158.4511439003,154158.4511439003,0.12448484014324389,0.12103444467342998,0.1172436892495042,0.15915481473733162,0.0,0.08357102482339314
154158.45614390032,154158.45614390032,154158.45614390032,154158.45614390032,0.12542180431821823,0.7364273920089724,0.11823132226578083,0.24102230853531148,0.0,0.7576466771866139
154158.46114390032,154158.46114390032,154158.46114390032,154158.46114390032,0.12635144229716352,0.11908596474860872,0.11921216801115586,0.24053814249455735,0.0,0.753660179925823
154158.46614390032,154158.46614390032,154158.46614390032,154158.46614390032,0.7147806391108071,0.11810131832911222,0.21298886982229906,0.24005256306520148,0.7431803903992338,0.7496620451908704
154158.47114390033,154158.47114390033,154158.47114390033,154158.47114390033,0.1281876169934928,0.11710995461240926,0.21353602449523762,0.23956571670519866,0.7481551236193564,0.745653478878466
154158.47614390033,154158.47614390033,154158.47614390033,154158.47614390033,0.12909383193358454,0.11611167336753567,0.2140820916578443,0.23644506695251105,0.7531199691897106,0.7199588604132806
154158.48114390034,154158.48114390034,154158.48114390034,154158.48114390034,0.12999237473597888,0.29882240988405184,0.21462694964541745,0.24581597677085243,0.7580738209341763,0.7971164947317657
154158.48614390034,154158.48614390034,154158.48614390034,154158.48614390034,0.13088280772767943,0.11409568928358713,0.21517045207817376,0.2291611942130566,0.7630153479669791,0.6599853466192187
154158.49114390035,154158.49114390035,154158.49114390035,154158.49114390035,0.1317653132851988,0.11307811292747084,0.21571246734953659,0.22865130828240426,0.7679433537204184,0.6557870784740688
154158.49614390035,154158.49614390035,154158.49614390035,154158.49614390035,0.13263960038685266,0.11205419241126632,0.21625285203667993,0.22814067963963017,0.7728565341933913,0.6515826950304683
154158.50114390036,154158.50114390036,154158.50114390036,154158.50114390036,0.13350551433162136,0.11102398389034024,0.21679146417765136,0.2276294425521905,0.7777535986670648,0.6473733018117318
154158.50614390036,154158.50614390036,154158.50614390036,154158.50614390036,0.26465448059698127,0.10998771583796887,0.22467936230947774,0.2271177326639567,0.849470410775414,0.6431600156742195
154158.51114390037,154158.51114390037,154158.51114390037,154158.51114390037,0.1352123232270742,0.10894544922545005,0.22519657093684026,0.22660569224265475,0.8541728743885927,0.6389440080133869
154158.51614390037,154158.51614390037,154158.51614390037,154158.51614390037,0.13605288506028718,0.10789721715931914,0.22571174366594737,0.22609344883306184,0.8588568276039172,0.6347263289997583
154158.52114390038,154158.52114390038,154158.52114390038,154158.52114390038,0.13688495298571693,0.10684327144164582,0.22622476211098486,0.2255811519561122,0.8635211940569297,0.6305082097498199
154158.52614390038,154158.52614390038,154158.52614390038,154158.52614390038,0.13770825908698625,0.1057835931717714,0.22673548128510357,0.22506892665385894,0.8681646555264203,0.6262906798273169
154158.53114390039,154158.53114390039,154158.53114390039,154158.53114390039,0.1385228139121565,0.10471835070519843,0.2272437774348912,0.22455691707489964,0.8727860868457007,0.6220749261143124
154158.5361439004,154158.5361439004,154158.5361439004,154158.5361439004,0.13932862416257716,0.10364770163396189,0.22774953164587589,0.13115603456660876,0.8773844068437555,0.0
154158.5411439004,154158.5411439004,154158.5411439004,154158.5411439004,0.14012505832189406,0.10257142641703038,0.22825259194007438,0.1302809265032964,0.8819582337359457,0.0
154158.5461439004,154158.5461439004,154158.5461439004,154158.5461439004,0.1409132472685241,0.10149034069810042,0.14631582126642612,0.1294030247021054,0.13698867543787002,0.0
154158.5511439004,154158.5511439004,154158.5511439004,154158.5511439004,0.14169185802391876,0.10040382469780948,0.14709215443169038,0.12852248620802878,0.1440471007390403,0.0
154158.5561439004,154158.5561439004,154158.5561439004,154158.5561439004,0.14246125576709354,0.1326270470234956,0.1478613417777659,0.12951749020099812,0.15104055621383153,0.0
154158.5611439004,154158.5611439004,154158.5611439004,154158.5611439004,0.143221729709826,0.09821590955666415,0.1486232797732063,0.10861284929987015,0.15796810055377855,0.0
154158.56614390042,154158.56614390042,154158.56614390042,154158.56614390042,0.14397252901412208,0.09711456716838453,0.1493778448266253,0.10757597006644498,0.1648286100653342,0.0
154158.57114390042,154158.57114390042,154158.57114390042,154158.57114390042,0.14471411229861117,0.09600860600430548,0.15012493233012336,0.10653415595932098,0.17162113365291506,0.0
154158.57614390043,154158.57614390043,154158.57614390043,154158.57614390043,0.14544604938585293,0.09489796032388878,0.15086442891822488,0.10548752977607474,0.1783446405970092,0.0
154158.58114390043,154158.58114390043,154158.58114390043,154158.58114390043,0.1461686937471931,0.0937829449592899,0.15159625227886653,0.10443623017734516,0.18499838251589543,0.0
154158.58614390044,154158.58614390044,154158.58614390044,154158.58614390044,0.14688168634576168,0.09266353226143588,0.1412522156825515,0.10338038116417421,0.09095034631895187,0.0
154158.59114390044,154158.59114390044,154158.59114390044,154158.59114390044,0.25600309003625266,0.09153978859466558,0.1513460902863301,0.10232010840476936,0.1827239083384212,0.0
154158.59614390045,154158.59614390045,154158.59614390045,154158.59614390045,0.14827847166000271,0.09041198727340094,0.15206214649443622,0.10125555272286935,0.18923429522191335,0.0
154158.60114390045,154158.60114390045,154158.60114390045,154158.60114390045,0.14896205163243212,0.08928005295401889,0.15276995467380186,0.10018683624812556,0.19566969098387213,0.0
154158.60614390046,154158.60614390046,154158.60614390046,154158.60614390046,0.14963579994272871,0.08814421736853412,0.1534694295332745,0.09911409744258133,0.20202932015668168,0.0
154158.61114390046,154158.61114390046,154158.61114390046,154158.61114390046,0.1502996455446115,0.08700458984703743,0.1541604817829851,0.09803747200361529,0.20831237091637406,0.0
154158.61614390046,154158.61614390046,154158.61614390046,154158.61614390046,0.15095340065536053,0.08586123890759664,0.1548430112152657,0.09695709133506526,0.21451793217429452,0.0
154158.62114390047,154158.62114390047,154158.62114390047,154158.62114390047,0.15159704477935437,0.08471429644877629,0.15551695284829356,0.09587311128129392,0.22064541311536265,0.0
154158.62614390047,154158.62614390047,154158.62614390047,154158.62614390047,0.1522302386344462,0.08356378773161595,0.15618215812602324,0.09478563737228468,0.22669346306721658,0.0
154158.63114390048,154158.63114390048,154158.63114390048,154158.63114390048,0.1528538076824038,0.08241011936392162,0.15683860497402516,0.093694841304348,0.23266188132902435,0.0
154158.63614390048,154158.63614390048,154158.63614390048,154158.63614390048,0.15346679871277882,0.08125311390692933,0.157486193259041,0.08995544296697366,0.23854975748866436,0.0
154158.6411439005,154158.6411439005,154158.6411439005,154158.6411439005,0.15406950795512914,0.08009300210823234,0.15812482539437897,0.08882575344699367,0.24435620428741145,0.0
154158.6461439005,154158.6461439005,154158.6461439005,154158.6461439005,0.1546615372115626,0.0789298039397777,0.1587544228671218,0.0876922553594696,0.250080507885401,0.0
154158.6511439005,154158.6511439005,154158.6511439005,154158.6511439005,0.15524341702517586,0.0777638017099352,0.1593749142566915,0.08655506297654508,0.25572201892635504,0.0
154158.6561439005,154158.6561439005,154158.6561439005,154158.6561439005,0.15581467959999942,0.07659499705712547,0.1599862247597709,0.08541429678723494,0.2612800572981125,0.0
154158.6611439005,154158.6611439005,154158.6611439005,154158.6611439005,0.15637547790702228,0.07542356068692721,0.160588269509527,0.08427006670223385,0.2667538513909731,0.0
154158.6661439005,154158.6661439005,154158.6661439005,154158.6661439005,0.15692546192510481,0.07424953876881397,0.1611809634544478,0.08312248870950872,0.27214262791613314,0.0
154158.67114390052,154158.67114390052,154158.67114390052,154158.67114390052,0.1574647231472625,0.07307308656500348,0.15307808559061428,0.08197168457475838,0.19847121893168465,0.0
154158.67614390052,154158.67614390052,154158.67614390052,154158.67614390052,0.15799340857238317,0.07189436357546802,0.1536842982797634,0.08081776770285994,0.20398290795185434,0.0
154158.68114390053,154158.68114390053,154158.68114390053,154158.68114390053,0.1585111257477948,0.07071341670140234,0.15428016333183894,0.0796608611041554,0.20940051620026848,0.0
154158.68614390053,154158.68614390053,154158.68614390053,154158.68614390053,0.15901799417658766,0.06953040056430686,0.15486561727240883,0.0785010820852212,0.21472346656705033,0.0
154158.69114390053,154158.69114390053,154158.69114390053,154158.69114390053,0.15951369967472184,0.06834538960500731,0.15544058099956334,0.07733854627650885,0.2199510398572126,0.0
154158.69614390054,154158.69614390054,154158.69614390054,154158.69614390054,0.15999925662787862,0.06715867701778043,0.15600505210083843,0.0761733825700661,0.22508321413661908,0.0
154158.70114390054,154158.70114390054,154158.70114390054,154158.70114390054,0.16047336086476555,0.06597017240100893,0.15655894577945006,0.0750057077071714,0.23011921843245492,0.0
154158.70614390055,154158.70614390055,154158.70614390055,154158.70614390055,0.25156380892309704,0.06478003392266432,0.164370306104532,0.07383564738382853,0.30114014839149855,0.0
154158.71114390055,154158.71114390055,154158.71114390055,154158.71114390055,0.1613883012869804,0.06358848063867731,0.1648793986774213,0.07266331273835197,0.30576882079388984,0.0
154158.71614390056,154158.71614390056,154158.71614390056,154158.71614390056,0.16182918496345766,0.06239554862872627,0.16537837005833717,0.07148883140869454,0.3103054712645902,0.0
154158.72114390056,154158.72114390056,154158.72114390056,154158.72114390056,0.16225868701918494,0.1771719531291963,0.16586714426802765,0.0816798094114286,0.3147494089998336,0.0
154158.72614390057,154158.72614390057,154158.72614390057,154158.72614390057,0.1626769058527312,0.060006040266522676,0.1663456749827122,0.08066763259135158,0.3191002128235588,0.0
154158.73114390057,154158.73114390057,154158.73114390057,154158.73114390057,0.8525493354627898,0.05880975835813719,0.2675670462981729,0.07965850942776492,1.0,0.0
154158.73614390058,154158.73614390058,154158.73614390058,154158.73614390058,0.1634799471502164,0.05761256928028344,0.26785274253974944,0.07865274333778328,1.0,0.0
154158.74114390058,154158.74114390058,154158.74114390058,154158.74114390058,0.1638642763519699,0.05641462043887497,0.26813239243314463,0.07765064409162808,1.0,0.0
154158.7461439006,154158.7461439006,154158.7461439006,154158.7461439006,0.16423760077359373,0.4006598253696286,0.26840595034134035,0.12537176269583064,1.0,0.0
154158.7511439006,154158.7511439006,154158.7511439006,154158.7511439006,0.16459938939016233,0.054016949389916906,0.268673348000176,0.12476663640187706,1.0,0.0
154158.7561439006,154158.7561439006,154158.7561439006,154158.7561439006,0.1649496108611963,0.05281744205547249,0.26893451151964015,0.12416931475206866,1.0,0.0
154158.7611439006,154158.7611439006,154158.7611439006,154158.7611439006,0.1652882672802689,0.05161765153863169,0.26918938246330404,0.12358000805772303,1.0,0.0
154158.7661439006,154158.7661439006,154158.7661439006,154158.7661439006,0.16561547729832427,0.05041770095224061,0.2694379035539086,0.12299892332644288,1.0,0.0
154158.7711439006,154158.7711439006,154158.7711439006,154158.7711439006,0.16593091237529872,0.23662776933020574,0.2696800174793022,0.1354117265899993,1.0,0.0
154158.7761439006,154158.7761439006,154158.7761439006,154158.7761439006,0.16623511279048953,0.05198220616753178,0.26991565115851246,0.13499380379961445,1.0,0.0
154158.78114390062,154158.78114390062,154158.78114390062,154158.78114390062,0.34250353478825846,0.053181921286446,0.28031548205107215,0.13464060636879754,1.0,0.0
154158.78614390062,154158.78614390062,154158.78614390062,154158.78614390062,0.16680825017878262,0.054381319283227,0.2763341448781043,0.1343526984344012,1.0,0.0
154158.79114390063,154158.79114390063,154158.79114390063,154158.79114390063,0.16707679264121678,0.4048270453639892,0.27654536527204593,0.16745368818980302,1.0,0.15190179051360306
154158.79614390063,154158.79614390063,154158.79614390063,154158.79614390063,0.16733476018372928,0.05677868455686172,0.276750074719389,0.16732872167256813,1.0,0.1508728487111761
154158.80114390064,154158.80114390064,154158.80114390064,154158.80114390064,0.3372255726738879,0.057976402890039684,0.28644838835589564,0.16200960231219058,1.0,0.10707660326005657
154158.80614390064,154158.80614390064,154158.80614390064,154158.80614390064,0.1678140921962346,0.059173322135313816,0.2866335488159128,0.1619904582540528,1.0,0.10691897606421323
154158.81114390065,154158.81114390065,154158.81114390065,154158.81114390065,0.7826366213806244,0.060369336176460744,0.273886424069917,0.1620263107719647,1.0,0.10721417637240824
154158.81614390065,154158.81614390065,154158.81614390065,154158.81614390065,0.1682466078661803,0.06156431349514805,0.2740667802488042,0.16211711867409043,1.0,0.10796186502177849
154158.82114390066,154158.82114390066,154158.82114390066,154158.82114390066,0.16844504157044715,0.06275812581224327,0.2742402951268805,0.1622627760053174,1.0,0.10916116960548297
154158.82614390066,154158.82614390066,154158.82614390066,154158.82614390066,0.16863165900209978,0.06395066518674969,0.2744069148238604,0.12865378141154543,1.0,0.0
154158.83114390066,154158.83114390066,154158.83114390066,154158.83114390066,0.16880642750807534,0.0651418107543396,0.27456660501493246,0.12897537367429798,1.0,0.0
154158.83614390067,154158.83614390067,154158.83614390067,154158.83614390067,0.16896921673665566,0.0663314290840485,0.27471932853279474,0.12936492195767504,1.0,0.0
154158.84114390067,154158.84114390067,154158.84114390067,154158.84114390067,0.16912011681156475,0.06751941347864016,0.2748650525851274,0.12982175707869176,1.0,0.0
154158.84614390068,154158.84614390068,154158.84614390068,154158.84614390068,0.16925928354613387,0.06870567288154829,0.2750037468912692,0.13034510507993252,1.0,0.0
154158.85114390068,154158.85114390068,154158.85114390068,154158.85114390068,0.169386479583859,0.167063225087418,0.2751353853846219,0.12342886682498513,1.0,0.0
154158.8561439007,154158.8561439007,154158.8561439007,154158.8561439007,0.16950162340715802,0.07107243081835622,0.27525991946988776,0.12402220146902754,1.0,0.0
154158.8611439007,154158.8611439007,154158.8611439007,154158.8611439007,0.1696050749442552,0.07225274533989282,0.2650171671761921,0.12462349441743985,1.0,0.0
154158.8661439007,154158.8661439007,154158.8661439007,154158.8661439007,0.16969625329678512,0.0734307771489083,0.26513173711675386,0.12523253294340267,1.0,0.0
154158.8711439007,154158.8711439007,154158.8711439007,154158.8711439007,0.16977553559782296,0.07460647908529223,0.26523886478429815,0.07608062622232323,1.0,0.0
154158.8761439007,154158.8761439007,154158.8761439007,154158.8761439007,0.16984275547253463,0.07577970106887708,0.26533847792651655,0.07710825630897708,1.0,0.0
154158.8811439007,154158.8811439007,154158.8811439007,154158.8811439007,0.16989825443084206,0.3928791224331683,0.255149031926341,0.12402713226547515,1.0,0.0
154158.88614390072,154158.88614390072,154158.88614390072,154158.88614390072,0.16994165281137202,0.07811838414347008,0.2552370285278713,0.12468076046864143,1.0,0.0
154158.89114390072,154158.89114390072,154158.89114390072,154158.89114390072,0.16997249500404701,0.07928341776275082,0.16931952405873416,0.12534105374895535,0.3461384645681047,0.0
154158.89614390073,154158.89614390073,154158.89614390073,154158.89614390073,0.16999239441462993,0.08044578061678163,0.16942847176979342,0.12600779613809882,0.34712901774121757,0.0
154158.90114390073,154158.90114390073,154158.90114390073,154158.90114390073,0.16999987734781227,0.08160499891172585,0.169525503060853,0.12668075734232687,0.34801122675979934,0.0
154158.90614390073,154158.90614390073,154158.90614390073,154158.90614390073,0.1699951951006927,0.08276101359405041,0.16961059609958162,0.1273597086715651,0.3487848931241766,0.0
154158.91114390074,154158.91114390074,154158.91114390074,154158.91114390074,0.16997847290746435,0.08391373917786768,0.16968373895132105,0.12804442256521562,0.349449908324373,0.0
154158.91614390074,154158.91614390074,154158.91614390074,154158.91614390074,0.16995003321321375,0.08506315370925935,0.16974494797647413,0.12873467579570028,0.35000642110925884,0.0
154158.92114390075,154158.92114390075,154158.92114390075,154158.92114390075,0.1699093327225263,0.08620898479552909,0.16979419992531242,0.12943023842464352,0.35045422009217847,0.0
154158.92614390075,154158.92614390075,154158.92614390075,154158.92614390075,0.16985608888702955,0.08735102185109153,0.16983144421710447,0.13013087581135496,0.3507928453928504,0.0
154158.93114390076,154158.93114390076,154158.93114390076,154158.93114390076,0.16979211058210905,0.08848971208885699,0.1698567581206282,0.12521606960566306,0.3510229995394177,0.0
154158.93614390076,154158.93614390076,154158.93614390076,154158.93614390076,0.1697155211700398,0.08962435629248204,0.16987010667278057,0.1259578948047362,0.3511443646471601,0.0
154158.94114390077,154158.94114390077,154158.94114390077,154158.94114390077,0.1696269193361698,0.09075502372398705,0.16987146989948435,0.1267039549847019,0.3511567591116602,0.0
154158.94614390077,154158.94614390077,154158.94614390077,154158.94614390077,0.16952653480464586,0.09188167788990358,0.1698608784036378,0.1274540208858221,0.3510604611746334,0.0
154158.95114390078,154158.95114390078,154158.95114390078,154158.95114390078,0.8747523617334726,0.09300413537018522,0.27363427349105585,0.12820785894248762,1.0,0.0
154158.95614390078,154158.95614390078,154158.95614390078,154158.95614390078,0.16928898181931964,0.0941219682200146,0.2736128249738312,0.1289652238302515,1.0,0.0
154158.9611439008,154158.9611439008,154158.9611439008,154158.9611439008,0.1691533219906241,0.09523592755053244,0.27358397674712953,0.08690092792008314,1.0,0.0
154158.9661439008,154158.9661439008,154158.9661439008,154158.9661439008,0.16900513600853276,0.09634513759962073,0.27354771612569995,0.08803701067301427,1.0,0.0
154158.9711439008,154158.9711439008,154158.9711439008,154158.9711439008,0.3279348886759742,0.09744969412618915,0.28238983362038805,0.08916937062586001,1.0,0.0
154158.9761439008,154158.9761439008,154158.9761439008,154158.9761439008,0.3524988155955794,0.09854939496864928,0.29275227272301774,0.09029787032186698,1.0,0.0
154158.9811439008,154158.9811439008,154158.9811439008,154158.9811439008,0.16848912726909543,0.09964447791972854,0.2926976809206797,0.09142241665995673,1.0,0.0
154158.9861439008,154158.9861439008,154158.9861439008,154158.9861439008,0.16829327447220618,0.1007344209990431,0.29263620531053136,0.0925428854943904,1.0,0.0
154158.9911439008,154158.9911439008,154158.9911439008,154158.9911439008,0.16808541867239293,0.29070091042862056,0.2925678559384856,0.11578333056599277,1.0,0.0
154158.99614390082,154158.99614390082,154158.99614390082,154158.99614390082,0.1678664652258516,0.10289913467279227,0.2924926646102993,0.11668466212100984,1.0,0.0
154159.00114390082,154159.00114390082,154159.00114390082,154159.00114390082,0.1676353279894623,0.10397359337420602,0.29241064484057017,0.11758600178390087,1.0,0.0
154159.00614390083,154159.00614390083,154159.00614390083,154159.00614390083,0.16739226701880264,0.1050425802528728,0.2923218307344391,0.11848713740743338,1.0,0.0
154159.01114390083,154159.01114390083,154159.01114390083,154159.01114390083,0.5863741342988005,0.10610617783600321,0.32425280532148887,0.11938784473448415,1.0,0.0
154159.01614390084,154159.01614390084,154159.01614390084,154159.01614390084,0.16687132532791607,0.42842951448771915,0.3241605301806848,0.15881881248156374,1.0,0.08080446963469824
154159.02114390084,154159.02114390084,154159.02114390084,154159.02114390084,0.16659314365825884,0.10821626946675103,0.3240621827850737,0.1595009658699252,1.0,0.08642114322441656
154159.02614390085,154159.02614390085,154159.02614390085,154159.02614390085,0.16630334933167829,0.10926263003605059,0.3239577838024277,0.16018446581315937,1.0,0.09204890399675329
154159.03114390085,154159.03114390085,154159.03114390085,154159.03114390085,0.16600208421642754,0.11030314586888568,0.242582889001986,0.16086912852497767,1.0,0.09768623870320647
154159.03614390086,154159.03614390086,154159.03614390086,154159.03614390086,0.16568928229791124,0.11133766678473547,0.24242750301478955,0.16155478082945113,1.0,0.10333172145821534
154159.04114390086,154159.04114390086,154159.04114390086,154159.04114390086,0.16536441822722928,0.11236579073369068,0.24226406718224577,0.16224120630492372,1.0,0.1089835703021498
154159.04614390086,154159.04614390086,154159.04614390086,154159.04614390086,0.1650286283786179,0.11338800708028444,0.24209266874357796,0.16292824321288227,1.0,0.11464045352215614
154159.05114390087,154159.05114390087,154159.05114390087,154159.05114390087,0.16468099417022836,0.11440369878112426,0.23147898160256575,0.16361570110943133,0.9112925858467579,0.12030080305272879
154159.05614390087,154159.05614390087,154159.05614390087,154159.05614390087,0.7536872240769414,0.11541305142664976,0.28516544753886897,0.16430340676310853,1.0,0.12596319255105953
154159.06114390088,154159.06114390088,154159.06114390088,154159.06114390088,0.6404378522480543,0.11641578568549737,0.3243147946155954,0.16499116733182498,1.0,0.13162603420554142
154159.06614390088,154159.06614390088,154159.06614390088,154159.06614390088,0.16356967042301496,0.11741186326945618,0.32416371123964993,0.16567880952740408,1.0,0.13728790120639608
154159.0711439009,154159.0711439009,154159.0711439009,154159.0711439009,0.1631764442582545,0.4358142963523055,0.3240069087752127,0.18449569243001848,1.0,0.29222122125307776
154159.0761439009,154159.0761439009,154159.0761439009,154159.0761439009,0.162771822230752,0.11938369554645928,0.32384440196161346,0.18511530245525895,1.0,0.2973229290567319
154159.0811439009,154159.0811439009,154159.0811439009,154159.0811439009,0.16235614424183822,0.12035936509715951,0.3236762523429993,0.18573480286033475,1.0,0.30242373427645947
154159.0861439009,154159.0861439009,154159.0861439009,154159.0861439009,0.1619290661870318,0.12132789727388305,0.323502503150232,0.18635402915012986,1.0,0.30752228250225594
154159.0911439009,154159.0911439009,154159.0911439009,154159.0911439009,0.16149083640695397,0.12228932234797632,0.2911943699640546,0.18697281625164808,1.0,0.3126172145660018
154159.0961439009,154159.0961439009,154159.0961439009,154159.0961439009,0.16104150192272937,0.12324354836372081,0.29098914323659014,0.15632067753544696,1.0,0.06023547618718439
154159.10114390092,154159.10114390092,154159.10114390092,154159.10114390092,0.16058096161828542,0.12419038288927894,0.2907778225537228,0.15706108640970404,1.0,0.0663318102970564
154159.10614390092,154159.10614390092,154159.10614390092,154159.10614390092,0.1601090299256722,0.12512956926552762,0.2905604466899007,0.1577993275907184,1.0,0.0724102961845276
154159.11114390093,154159.11114390093,154159.11114390093,154159.11114390093,0.8423849016327694,0.12606183835984988,0.3564461391136821,0.15853525785125414,1.0,0.07846975455378694
154159.11614390093,154159.11614390093,154159.11614390093,154159.11614390093,0.1591333537465382,0.12698611123011933,0.3562593935104581,0.15926868887820073,1.0,0.08450863488365785
154159.12114390093,154159.12114390093,154159.12114390093,154159.12114390093,0.5660962606815434,0.12790270551785746,0.3811046176062607,0.1599994678239739,1.0,0.09052567866688298
154159.12614390094,154159.12614390094,154159.12614390094,154159.12614390094,0.15811345611810998,0.12881146316127057,0.38092134110880693,0.16072741446222438,1.0,0.09651940196657459
154159.13114390094,154159.13114390094,154159.13114390094,154159.13114390094,0.47911798305083847,0.34615161785892595,0.3971815785660824,0.18028892859916137,1.0,0.2575838219377835
154159.13614390095,154159.13614390095,154159.13614390095,154159.13614390095,0.157050570663645,0.13060547686804966,0.35184085106452,0.18093562089788598,1.0,0.2629085181379231
154159.14114390095,154159.14114390095,154159.14114390095,154159.14114390095,0.4851834995592716,0.13149016598159785,0.33596076196646213,0.18157990857132858,1.0,0.26821341527887016
154159.14614390096,154159.14614390096,154159.14614390096,154159.14614390096,0.15594489681933452,0.13236727723605096,0.3357340754841427,0.182221664737421,1.0,0.27349746864667385
154159.15114390096,154159.15114390096,154159.15114390096,154159.15114390096,0.15537599540750413,0.13323575406035162,0.33550270668125554,0.1498110115382478,1.0,0.006636579358160254
154159.15614390097,154159.15614390097,154159.15614390097,154159.15614390097,0.15479649840818718,0.1340958584956879,0.3352667174107704,0.15058690583703943,1.0,0.013025091224829576
154159.16114390097,154159.16114390097,154159.16114390097,154159.16114390097,0.15420687226195215,0.13494783607426963,0.3350261734863068,0.1513578543237249,1.0,0.019372880560891613
154159.16614390098,154159.16614390098,154159.16614390098,154159.16614390098,0.15360661348926768,0.13579114834123507,0.3347811374582531,0.15212371165408436,1.0,0.0256787506398405
154159.17114390098,154159.17114390098,154159.17114390098,154159.17114390098,0.15299592993857894,0.13662582759983946,0.3345316711744029,0.15288433470389753,1.0,0.031941523014069044
154159.176143901,154159.176143901,154159.176143901,154159.176143901,0.15237512513733595,0.1574637680452893,0.3342778445506552,0.1548353526329246,1.0,0.048005697233528516
154159.181143901,154159.181143901,154159.181143901,154159.181143901,0.151743947520344,0.13826930222612718,0.334019724164393,0.15557934702574364,1.0,0.05413155357074105
154159.186143901,154159.186143901,154159.186143901,154159.186143901,0.15110252764632573,0.1390777224223526,0.3337573866683594,0.15631781234573858,1.0,0.06021188496028564
154159.191143901,154159.191143901,154159.191143901,154159.191143901,0.1504508956327973,0.13987714099027873,0.2616446827269934,0.1570505815784102,1.0,0.06624531624821169
154159.196143901,154159.196143901,154159.196143901,154159.196143901,0.14978967718627342,0.14066798355527207,0.26129970377732586,0.15777756730957274,1.0,0.0722311276888476
154159.201143901,154159.201143901,154159.201143901,154159.201143901,0.1491180521048179,0.4016323878349129,0.22279640092074549,0.18426367737857588,0.8323505157328901,0.2903108696604763
154159.206143901,154159.206143901,154159.206143901,154159.206143901,0.14843685617324368,0.14222193021569063,0.2223799416928132,0.18487907013939944,0.8285640661995348,0.29537785360572055
154159.21114390102,154159.21114390102,154159.21114390102,154159.21114390102,0.1477455764369722,0.14298504282606608,0.19097122315135162,0.16724011725946689,0.5429958288115019,0.1501433030173643
154159.21614390102,154159.21614390102,154159.21614390102,154159.21614390102,0.14704457163817605,0.14373890309526077,0.1904726610063193,0.16791202882954476,0.5384628991156489,0.15567564813896143
154159.22114390103,154159.22114390103,154159.22114390103,154159.22114390103,0.14633388319771176,0.14448340947094418,0.1513456165908827,0.16857805734157363,0.1827196014968736,0.1611595536906109
154159.22614390103,154159.22614390103,154159.22614390103,154159.22614390103,0.1456135734664405,0.14521847986879896,0.1507009523265499,0.16923805228978894,0.1768583105489621,0.16659378044698978
154159.23114390104,154159.23114390104,154159.23114390104,154159.23114390104,0.1448837153336657,0.1459440416521547,0.1500462477734113,0.16989191244347035,0.17090573324139363,0.1719774949006743
154159.23614390104,154159.23614390104,154159.23614390104,154159.23614390104,0.1441443273828763,0.19116387427639925,0.14938156988298976,0.173272566744902,0.164862478297773,0.19981292319991328
154159.24114390105,154159.24114390105,154159.24114390105,154159.24114390105,0.3309610824122773,0.1473659562641464,0.16635675770576563,0.1739036954729511,0.3192009770009847,0.20500947300678382
154159.24614390105,154159.24614390105,154159.24614390105,154159.24614390105,0.14263743201270482,0.14806280249745885,0.16574520706749238,0.17452852243651193,0.31364075531875707,0.21015413572378022
154159.25114390106,154159.25114390106,154159.25114390106,154159.25114390106,0.14187001887894013,0.1487495116288993,0.1651255064966636,0.1751469173908807,0.30800643440603587,0.2152458389498846
154159.25614390106,154159.25614390106,154159.25614390106,154159.25614390106,0.14109326645804696,0.1494261791942169,0.16449773125556658,0.17470625838926201,0.3022986985479405,0.2116175673343051
154159.26114390107,154159.26114390107,154159.26114390107,154159.26114390107,0.14030753386656147,0.150093041339622,0.16386199144827582,0.17531506435673294,0.29651854881130685,0.21663031733613444
154159.26614390107,154159.26614390107,154159.26614390107,154159.26614390107,0.13951302096791462,0.15075017476852653,0.16321840142520738,0.1759170527132459,0.2906670248707308,0.2215869329024161
154159.27114390107,154159.27114390107,154159.27114390107,154159.27114390107,0.1387092532976223,0.15139689366502762,0.1625670496238543,0.17651210224175218,0.28474493080037316,0.2264864159634964
154159.27614390108,154159.27614390108,154159.27614390108,154159.27614390108,0.1378965847185613,0.1520334351549303,0.16190800834500718,0.17710008462948754,0.27875292395941,0.23132771002544525
154159.28114390108,154159.28114390108,154159.28114390108,154159.28114390108,0.1370754398624793,0.5438392783096427,0.16124142097525446,0.19941847101113866,0.2726923080194719,0.4150914990700921
154159.2861439011,154159.2861439011,154159.2861439011,154159.2861439011,0.1362454359037,0.1532763993865177,0.16056736357832432,0.19992970678174368,0.2665637745523836,0.4193008814463546
154159.2911439011,154159.2911439011,154159.2911439011,154159.2911439011,0.13540652306749815,0.15388198999914332,0.15988594041465082,0.20043470676810637,0.26036827149457037,0.4234589199969282
154159.2961439011,154159.2961439011,154159.2961439011,154159.2961439011,0.13455951487444862,0.15447773212196794,0.15919727935635172,0.20093339137230065,0.25410696146001277,0.42756495933319094
154159.3011439011,154159.3011439011,154159.3011439011,154159.3011439011,0.13370380809122887,0.15506273022653408,0.15850147534759007,0.2014256436918697,0.24778070768155006,0.43161803691071654
154159.3061439011,154159.3061439011,154159.3061439011,154159.3061439011,0.13283975493570055,0.15563725095810585,0.15779863963123894,0.20191136452310832,0.2413905215799808,0.43561733591199686
154159.3111439011,154159.3111439011,154159.3111439011,154159.3111439011,0.13196756308668425,0.15620139526028198,0.15708889152516187,0.20239046398064764,0.23493748799396005,0.4395621162442812
154159.31614390112,154159.31614390112,154159.31614390112,154159.31614390112,0.13108696455761093,0.15675464824978902,0.156372336629983,0.2005334746813455,0.22842256704492886,0.4242721493076178
154159.32114390112,154159.32114390112,154159.32114390112,154159.32114390112,0.1301982953921178,0.49686736654848285,0.13662294844329742,0.23299399755674494,0.048861023758183776,0.6915436525403948
154159.32614390113,154159.32614390113,154159.32614390113,154159.32614390113,0.41278557651540965,0.15782906370255964,0.16746264057794702,0.2333943372044115,0.32925567000444395,0.6948399450815298
154159.33114390113,154159.33114390113,154159.33114390113,154159.33114390113,0.12839720200834018,0.15835057139454833,0.16678176516339369,0.23378878721996704,0.3230651470845683,0.6980877439236003
154159.33614390114,154159.33614390114,154159.33614390114,154159.33614390114,0.7368787628845237,0.15886080225588217,0.24598545643069825,0.23417724643169976,1.0,0.7012862160450432
154159.34114390114,154159.34114390114,154159.34114390114,154159.34114390114,0.12656428864933783,0.1593598820657458,0.24551907149805843,0.23455961061300065,1.0,0.7044345032710665
154159.34614390114,154159.34614390114,154159.34614390114,154159.34614390114,0.12563669412371947,0.1598487164224284,0.24505031720534495,0.23493581195774468,1.0,0.7075320473036715
154159.35114390115,154159.35114390115,154159.35114390115,154159.35114390115,0.12470136471189475,0.16032632392763674,0.2445793200591666,0.23530576950223805,1.0,0.7105781815088597
154159.35614390115,154159.35614390115,154159.35614390115,154159.35614390115,0.12375853122812437,0.16079285023791576,0.24410620214165588,0.2356694000421022,1.0,0.7135722208034175
154159.36114390116,154159.36114390116,154159.36114390116,154159.36114390116,0.12280824690655111,0.16124818402450433,0.24363107304887438,0.196672455188525,1.0,0.39248151895276123
154159.36614390116,154159.36614390116,154159.36614390116,154159.36614390116,0.12185082305685557,0.16169260919865244,0.24315406643142165,0.19709320754066637,1.0,0.3959458843937374
154159.37114390117,154159.37114390117,154159.37114390117,154159.37114390117,0.12088610802110539,0.16212570174300064,0.24267531355927008,0.19750582201201292,1.0,0.39934324464069654
154159.37614390117,154159.37614390117,154159.37614390117,154159.37614390117,0.11991433407916174,0.16254762857268365,0.24219492529931377,0.1979102002000073,1.0,0.40267278947257334
154159.38114390118,154159.38114390118,154159.38114390118,154159.38114390118,0.11893544809044271,0.16295810329759144,0.2417130325880026,0.1983062736363176,1.0,0.40593395513892955
154159.38614390118,154159.38614390118,154159.38614390118,154159.38614390118,0.1179498942327348,0.16335765199070065,0.24122976845535116,0.19869398883623648,0.9999467921946098,0.4091263012605952
154159.3911439012,154159.3911439012,154159.3911439012,154159.3911439012,0.4689401738957963,0.1637453109563523,0.2661717335681443,0.1990732387485516,1.0,0.4122489464057286
154159.3961439012,154159.3961439012,154159.3961439012,154159.3961439012,0.11595821669021124,0.16412223213742136,0.26573257042464055,0.19944400177544505,1.0,0.4153017127435145
154159.4011439012,154159.4011439012,154159.4011439012,154159.4011439012,0.11495247739396655,0.6217408481699086,0.2652926756065579,0.22024575192405424,1.0,0.5865779134822559
154159.4061439012,154159.4061439012,154159.4061439012,154159.4061439012,0.4923647301789917,0.16484142879839234,0.2736460253494528,0.22056656352852724,1.0,0.5892193927988753
154159.4111439012,154159.4111439012,154159.4111439012,154159.4111439012,0.1129216022942353,0.16518362231063896,0.2732192116476691,0.2208795583524007,1.0,0.5917965107769758
154159.4161439012,154159.4161439012,154159.4161439012,154159.4161439012,0.11189662507253498,0.1655143321220012,0.20370173436399266,0.22118469494005952,0.6587417050160177,0.5943089260818044
154159.4211439012,154159.4211439012,154159.4211439012,154159.4211439012,0.11086552646360381,0.4365068098723758,0.20312911397728006,0.2434010748056314,0.653535437389718,0.777232820002251
154159.42614390122,154159.42614390122,154159.42614390122,154159.42614390122,0.10982838283017099,0.16614139966084773,0.20255565375469511,0.24366430339761924,0.6483215339711638,0.7794001757698859
154159.43114390122,154159.43114390122,154159.43114390122,154159.43114390122,0.10878517263200363,0.1664374084020594,0.20198150740096182,0.243920269347306,0.6431013922445299,0.7815077328296347
154159.43614390123,154159.43614390123,154159.43614390123,154159.43614390123,0.10773610676246137,0.16672181830168412,0.20140682770825238,0.24416892062483914,0.6378764013970653,0.7835550627812232
154159.44114390123,154159.44114390123,154159.44114390123,154159.44114390123,0.10668117496103328,0.1669943650210553,0.20083176596700794,0.24441019949604817,0.6326479369622718,0.785541690256507
154159.44614390124,154159.44614390124,154159.44614390124,154159.44614390124,0.10562073394152954,0.16725554109428842,0.20025647428696702,0.24464405853714852,0.6274173819227079,0.7874672247803773
154159.45114390124,154159.45114390124,154159.45114390124,154159.45114390124,0.12474300587070179,0.1675049131362116,0.20040425617715724,0.24487045028947876,0.6287610156607027,0.789331275590559
154159.45614390125,154159.45614390125,154159.45614390125,154159.45614390125,0.1034831290601537,0.16774239445008635,0.1998310481358481,0.24508931766562148,0.6235494050756604,0.7911333726441037
154159.46114390125,154159.46114390125,154159.46114390125,154159.46114390125,0.19918780563203875,0.16796795093970424,0.2037843998392018,0.2453006149672954,0.6594932999598596,0.7928731396732486
154159.46614390126,154159.46614390126,154159.46614390126,154159.46614390126,0.10132413320894441,0.16818215628148347,0.20322458455890144,0.24550430017630387,0.6544034564297192,0.7945502307110898
154159.47114390126,154159.47114390126,154159.47114390126,154159.47114390126,0.10023681254601557,0.16838415536006832,0.16788132717082002,0.24570033569841723,0.333062370751783,0.7961643362165179
154159.47614390127,154159.47614390127,154159.47614390127,154159.47614390127,0.09914456679860323,0.16857454605257938,0.16720675399596666,0.24588866254517794,0.32692914782905114,0.7977149704939149
154159.48114390127,154159.48114390127,154159.48114390127,154159.48114390127,0.09804740293582315,0.16875307399722253,0.16653242898781995,0.19514348368453419,0.3207981812393469,0.3798923652339404
154159.48614390127,154159.48614390127,154159.48614390127,154159.48614390127,0.09694541239551403,0.16891967401287464,0.11475631353373265,0.1953613362485169,0.0,0.3816861065880854
154159.49114390128,154159.49114390128,154159.49114390128,154159.49114390128,0.0958386755995837,0.169074248295348,0.11378102527707071,0.195569249175623,0.0,0.3833980075572249
154159.49614390128,154159.49614390128,154159.49614390128,154159.49614390128,0.0947274685677756,0.1692172109429393,0.11280247836601871,0.1957672038914118,0.0,0.38502791520424534
154159.5011439013,154159.5011439013,154159.5011439013,154159.5011439013,0.09361170365919157,0.3612624982261017,0.1118208310513358,0.18593835797633837,0.0,0.3040997541623326
154159.5061439013,154159.5061439013,154159.5061439013,154159.5061439013,0.09249146224839104,0.16946658225125905,0.11083624436131471,0.18612581854918203,0.0,0.30564325576559154
154159.5111439013,154159.5111439013,154159.5111439013,154159.5111439013,0.09136725883082264,0.1695740001802162,0.10984891078989496,0.18630268649283727,0.0,0.3070995404149756
154159.5161439013,154159.5161439013,154159.5161439013,154159.5161439013,0.09023878073374965,0.2892432242642154,0.10885899712345844,0.19544892779127013,0.0,0.38240731257087246
154159.5211439013,154159.5211439013,154159.5211439013,154159.5211439013,0.08910621495354583,0.16975198886259427,0.10786668407340928,0.19559734689057884,0.0,0.383629356834699
154159.5261439013,154159.5261439013,154159.5261439013,154159.5261439013,0.08796983987108724,0.16982323831153046,0.10687214844630955,0.19573557897294863,0.0,0.3847675238504242
154159.53114390132,154159.53114390132,154159.53114390132,154159.53114390132,0.08682962423264272,0.1698823738935881,0.10450031816554567,0.19586359970795966,0.0,0.3858216132876986
154159.53614390132,154159.53614390132,154159.53614390132,154159.53614390132,0.08568570225420215,0.16992944409089789,0.10348863026859513,0.1959813926311231,0.0,0.3867914895822033
154159.54114390133,154159.54114390133,154159.54114390133,154159.54114390133,0.08453815267954104,0.16996431325566708,0.09314949773881039,0.1960889363528286,0.0,0.38767697661744926
154159.54614390133,154159.54614390133,154159.54614390133,154159.54614390133,0.08338727973547277,0.3530901321069608,0.09203128588794558,0.21089116551250436,0.0,0.5095546818500057
154159.55114390134,154159.55114390134,154159.55114390134,154159.55114390134,0.08223300158334276,0.16999872815543812,0.09090894114271754,0.21097210758440663,0.0,0.5102211378191575
154159.55614390134,154159.55614390134,154159.55614390134,154159.55614390134,0.08107552970004524,0.1699979301401001,0.08978257266359572,0.21104347915962546,0.0,0.5108087928076507
154159.56114390134,154159.56114390134,154159.56114390134,154159.56114390134,0.07991493624988245,0.16998508226478115,0.08865229462585297,0.21110526546930333,0.0,0.5113175252125537
154159.56614390135,154159.56614390135,154159.56614390135,154159.56614390135,0.07875134792980026,0.16996022296006522,0.08751822356482707,0.21115745766812555,0.0,0.5117472622038456
154159.57114390135,154159.57114390135,154159.57114390135,154159.57114390135,0.7108486864439303,0.1699233966588561,0.19663923733792738,0.2112000547699541,0.5945294441869314,0.5120979956619226
154159.57614390136,154159.57614390136,154159.57614390136,154159.57614390136,0.07641566210490147,0.169874519324981,0.1961405578098171,0.21123303156613135,0.5899954472435043,0.5123695180252539
154159.58114390136,154159.58114390136,154159.58114390136,154159.58114390136,0.07524380588164113,0.16981372007939305,0.19564578546903283,0.19561384231703322,0.5854969744681952,0.3837651758861003
154159.58614390137,154159.58614390137,154159.58614390137,154159.58614390137,0.07406938087770157,0.16974072283084493,0.19515506279358305,0.19562869731070662,0.5810353212718208,0.3838874880406163
154159.59114390137,154159.59114390137,154159.59114390137,154159.59114390137,0.07289262004689244,0.18486668132015113,0.19466852188632724,0.19649264358191498,0.5766116887342881,0.39100099694817636
154159.59614390138,154159.59614390138,154159.59614390138,154159.59614390138,0.07171352758785884,0.1695593084605604,0.19418630344100296,0.18755640151895242,0.5722273560438133,0.31742230388189635
154159.60114390138,154159.60114390138,154159.60114390138,154159.60114390138,0.07053224809105309,0.16945046034218914,0.19370854517527272,0.18753935933544547,0.5678835753301223,0.31728198297512117
154159.6061439014,154159.6061439014,154159.6061439014,154159.6061439014,0.06934896756719239,0.16932997343576667,0.19323538013236952,0.18751148105388304,0.563581556223003,0.3170524404551397
154159.6111439014,154159.6111439014,154159.6111439014,154159.6111439014,0.06816371661109119,0.16919734283260102,0.1927669419882914,0.18747276607120564,0.5593225141053463,0.31673367135651675
154159.6161439014,154159.6161439014,154159.6161439014,154159.6161439014,0.06697664658810891,0.1690527685687665,0.19230336294408462,0.18742322276167298,0.5551076509497737,0.31632574463072893
154159.6211439014,154159.6211439014,154159.6211439014,154159.6211439014,0.06578784491496417,0.1688960247490565,0.19184477378758513,0.18736285489016866,0.5509381558799907,0.31582869127684876
154159.6261439014,154159.6261439014,154159.6261439014,154159.6261439014,0.06459755054622127,0.16872803865650263,0.1913913008715138,0.17056412648895974,0.546815177695613,0.17751233052614404
154159.6311439014,154159.6311439014,154159.6311439014,154159.6311439014,0.06340575382452845,0.16854785931790944,0.19094307133562344,0.17047410969580779,0.5427398723519552,0.17677115566231733
154159.6361439014,154159.6361439014,154159.6361439014,154159.6361439014,0.062212608997599665,0.16835575394151853,0.19050020850701205,0.17037222427279478,0.5387133611396532,0.17593225758693137
154159.64114390142,154159.64114390142,154159.64114390142,154159.64114390142,0.061018262025832194,0.16815200287475074,0.19006283538679242,0.17025849551798755,0.5347367623854841,0.17499584459768913
154159.64614390142,154159.64614390142,154159.64614390142,154159.64614390142,0.05982279517137171,0.16793624933053206,0.18963107181208905,0.1701329243538984,0.5308111656492264,0.1739619242903169
154159.65114390143,154159.65114390143,154159.65114390143,154159.65114390143,0.05862634924052148,0.16770872787386548,0.06777273057424962,0.16999552344479846,0.0,0.1728306009391295
154159.65614390143,154159.65614390143,154159.65614390143,154159.65614390143,0.05742902264130257,0.16746914661968976,0.06659064657406946,0.16984629275722546,0.0,0.17160187426860737
154159.66114390144,154159.66114390144,154159.66114390144,154159.66114390144,0.05623099700287564,0.16721849818786097,0.0654070533652647,0.16968528538572727,0.0,0.17027618144544923
154159.66614390144,154159.66614390144,154159.66614390144,154159.66614390144,0.055032326253730224,0.16695579108132183,0.06422207847973524,0.16951251067609724,0.0,0.16885359942048678
154159.67114390145,154159.67114390145,154159.67114390145,154159.67114390145,0.05383314189778742,0.16668108185077954,0.0630358424516377,0.16832980157937788,0.0,0.15911548030944725
154159.67614390145,154159.67614390145,154159.67614390145,154159.67614390145,0.05263359327851749,0.4697084778736118,0.06184847615327562,0.20081621708305292,0.0,0.42660017670945793
154159.68114390146,154159.68114390146,154159.68114390146,154159.68114390146,0.051433773075279375,0.16609766052971922,0.060660107892099434,0.20064106992027322,0.0,0.42515806052227345
154159.68614390146,154159.68614390146,154159.68614390146,154159.68614390146,0.05035430687351817,0.16578806518540082,0.05947723091117267,0.20045611515899694,0.0,0.42363519111976505
154159.69114390147,154159.69114390147,154159.69114390147,154159.69114390147,0.05096618187597572,0.16546742260679723,0.05839087866618871,0.2002614217711309,0.0,0.42203213639867565
154159.69614390147,154159.69614390147,154159.69614390147,154159.69614390147,0.052166072780169666,0.16513487480977487,0.05743874092439193,0.20005700455032677,0.0,0.4203490181660857
154159.70114390148,154159.70114390148,154159.70114390148,154159.70114390148,0.05336574695082521,0.16479086711174623,0.05662773489683235,0.19984291390705458,0.0,0.4185862514886951
154159.70614390148,154159.70614390148,154159.70614390148,154159.70614390148,0.05456508997189278,0.1644355394779625,0.05596411308810089,0.19961915918761675,0.0,0.4167439133215271
154159.71114390148,154159.71114390148,154159.71114390148,154159.71114390148,0.05576396813366289,0.16406855210324156,0.055453269619427877,0.199385783148044,0.0,0.41482235570661913
154159.7161439015,154159.7161439015,154159.7161439015,154159.7161439015,0.05696227494082117,0.16369026988174618,0.05509953143624776,0.19914283393359952,0.0,0.41282197505954676
154159.7211439015,154159.7211439015,154159.7211439015,154159.7211439015,0.058159859003383566,0.16330024845288094,0.05490598483461595,0.19889032278929286,0.0,0.41074286396879417
154159.7261439015,154159.7261439015,154159.7261439015,154159.7261439015,0.05935667652030488,0.1628995813834256,0.05487435817162548,0.19862833662448479,0.0,0.4085857380234352
154159.7311439015,154159.7311439015,154159.7311439015,154159.7311439015,0.06055254378059474,0.5402206875650062,0.0550049342610476,0.23650629373648444,0.0,0.7204629858290508
154159.7361439015,154159.7361439015,154159.7361439015,154159.7361439015,0.06174730967829852,0.16206349492898614,0.055296542782962,0.2362708050297585,0.0,0.7185240330622522
154159.7411439015,154159.7411439015,154159.7411439015,154159.7411439015,0.06294096629084844,0.16162902354166883,0.05574661565605096,0.2360275683137184,0.0,0.7165212852018131
154159.74614390152,154159.74614390152,154159.74614390152,154159.74614390152,0.06413329446604696,0.2678635139750146,0.05635128938178075,0.2417670410241082,0.0,0.7637786108141476
154159.75114390152,154159.75114390152,154159.75114390152,154159.75114390152,0.06532419487102363,0.16072590798750352,0.05710556469643922,0.24151488935212492,0.0,0.7617024595250165
154159.75614390153,154159.75614390153,154159.75614390153,154159.75614390153,0.06651360367051704,0.16025795859929426,0.05800349808449999,0.21481498253851705,0.0,0.5418623707611897
154159.76114390153,154159.76114390153,154159.76114390153,154159.76114390153,0.06770133800602134,0.5591089028712779,0.05903840423596308,0.25290091439198725,0.0,0.8554520284993455
154159.76614390154,154159.76614390154,154159.76614390154,154159.76614390154,0.06888730789459332,0.15928874115683467,0.06019677927634282,0.25263971141062014,0.0,0.8533013510827541
154159.77114390154,154159.77114390154,154159.77114390154,154159.77114390154,0.07007136986887419,0.5058336939262904,0.06138550365528153,0.27947690406288966,0.0,1.0
154159.77614390154,154159.77614390154,154159.77614390154,154159.77614390154,0.07125345398606485,0.15827579086196353,0.06257327529576805,0.2792287522766708,0.0,1.0
154159.78114390155,154159.78114390155,154159.78114390155,154159.78114390155,0.177236622292973,0.1577530421141883,0.07550312652220191,0.27897458777420725,0.0,1.0
154159.78614390155,154159.78614390155,154159.78614390155,154159.78614390155,0.07361104140992793,0.15721927178999706,0.0765068584376,0.2787144576846739,0.0,1.0
154159.79114390156,154159.79114390156,154159.79114390156,154159.79114390156,0.0747864531883271,0.15667535889295434,0.07751458880685506,0.27844845360658455,0.0,1.0
154159.79614390156,154159.79614390156,154159.79614390156,154159.79614390156,0.0759593115865855,0.15612043968594402,0.0785259908790584,0.2781766242300188,0.0,1.0
154159.80114390157,154159.80114390157,154159.80114390157,154159.80114390157,0.0771295042685634,0.41621359375637323,0.07954074864732395,0.2941813357407052,0.0,1.0
154159.80614390157,154159.80614390157,154159.80614390157,154159.80614390157,0.07829712883422565,0.15497884700105427,0.08055856428019288,0.2939137524612715,0.0,1.0
154159.81114390158,154159.81114390158,154159.81114390158,154159.81114390158,0.07946187977174736,0.15515257183960118,0.08157913958265246,0.2639127023573662,0.0,0.946120226731541
154159.81614390158,154159.81614390158,154159.81614390158,154159.81614390158,0.8051378911114407,0.2124888727223881,0.2166386377258805,0.2661397161374216,0.7763640997481306,0.9644568790091483
154159.8211439016,154159.8211439016,154159.8211439016,154159.8211439016,0.08178231554761621,0.1531877930292563,0.21703161802925008,0.2658274974929064,0.7799370787734712,0.9618861518900199
154159.8261439016,154159.8261439016,154159.8261439016,154159.8261439016,0.08293789116543052,0.1525702129833216,0.21742946930013435,0.26006669127170434,0.7835543446615726,0.914453171697939
154159.8311439016,154159.8311439016,154159.8311439016,154159.8311439016,0.08409012912529165,0.15194223503342927,0.21783208632209264,0.25973647315990517,0.7872149407839923,0.9117342416463797
154159.8361439016,154159.8361439016,154159.8361439016,154159.8361439016,0.08523888129741929,0.37401921586026776,0.2182393600949664,0.2731318738689993,0.7909178761107043,1.0
154159.8411439016,154159.8411439016,154159.8411439016,154159.8411439016,0.08638428397427433,0.15065582183437734,0.2186511871201065,0.23765925446867758,0.794662209631436,0.729956164643344
154159.8461439016,154159.8461439016,154159.8461439016,154159.8461439016,0.08752595080573322,0.1499974561483448,0.21906745492826982,0.23728109300276223,0.7984469187752253,0.7268424814827902
154159.85114390161,154159.85114390161,154159.85114390161,154159.85114390161,0.08866369291250646,0.14932864955008573,0.2194880478673006,0.20421624464197016,0.8022709520320527,0.45459511937236163
154159.85614390162,154159.85614390162,154159.85614390162,154159.85614390162,0.1972477758660912,0.14865061533206644,0.22425288193309115,0.20376367633184866,0.8455928489065802,0.450868789607866
154159.86114390162,154159.86114390162,154159.86114390162,154159.86114390162,0.39947218370650495,0.1479626688360081,0.24145326749680934,0.2033041289775492,1.0,0.4470849962086739
154159.86614390163,154159.86614390163,154159.86614390163,154159.86614390163,0.09205394588922748,0.147264654218354,0.24184838092471475,0.202837693844887,1.0,0.4432444906337719
154159.87114390163,154159.87114390163,154159.87114390163,154159.87114390163,0.09317572605245464,0.1465569957383293,0.24224715323913085,0.20236444006182916,1.0,0.4393478420648627
154159.87614390164,154159.87614390164,154159.87614390164,154159.87614390164,0.0942932187893003,0.14583974659017485,0.24264948049248247,0.20188448207179588,1.0,0.4353959927993047
154159.88114390164,154159.88114390164,154159.88114390164,154159.88114390164,0.09540624639755357,0.14511283368825642,0.2430552557489889,0.17676635081651512,1.0,0.22857983260476628
154159.88614390165,154159.88614390165,154159.88614390165,154159.88614390165,0.09651474410582624,0.1443764311620652,0.24346436764460935,0.1762043549676616,1.0,0.22395250494555913
154159.89114390165,154159.89114390165,154159.89114390165,154159.89114390165,0.09761853810905623,0.14363048710387477,0.24387670574071874,0.1755927446590492,1.0,0.21891666472810586
154159.89614390166,154159.89614390166,154159.89614390166,154159.89614390166,0.09871761626647757,0.14287527271999534,0.13989096327700173,0.17113350310400038,0.07857383214885234,0.18220042949459386
154159.90114390166,154159.90114390166,154159.90114390166,154159.90114390166,0.09981174886043027,0.14211063296770343,0.1406204429882367,0.1705351404813055,0.0852062655947667,0.17727366727761273
154159.90614390167,154159.90614390167,154159.90614390167,154159.90614390167,0.10090100208149322,0.14133697448676052,0.14135241026628437,0.16992906915293965,0.09186131601148013,0.17228343358296733
154159.91114390167,154159.91114390167,154159.91114390167,154159.91114390167,0.10198520077860926,0.14055424011558557,0.14208665788238012,0.1693153987973459,0.09853709927395359,0.16723063147443326
154159.91614390168,154159.91614390168,154159.91614390168,154159.91614390168,0.10306396770878934,0.1397620497468472,0.14282296911867753,0.14541456362654565,0.10523164498236541,0.0
154159.92114390168,154159.92114390168,154159.92114390168,154159.92114390168,0.10413772537853462,0.138961385123931,0.14356114321415075,0.14468487631274496,0.11194312781639204,0.0
154159.92614390168,154159.92614390168,154159.92614390168,154159.92614390168,0.1052059758584583,0.13815166428153447,0.144300973391369,0.14394574942294497,0.11866966775452403,0.0
154159.9311439017,154159.9311439017,154159.9311439017,154159.9311439017,0.10626864264002538,0.1373330266895989,0.14504225865131848,0.14319727980006416,0.12540943731265047,0.0
154159.9361439017,154159.9361439017,154159.9361439017,154159.9361439017,0.10732571333236128,0.13650570444110302,0.13901623834398716,0.14243949965260813,0.07062082836773362,0.0
154159.9411439017,154159.9411439017,154159.9411439017,154159.9411439017,0.10837704666925806,0.1356697241576979,0.10042901444008313,0.14167248755150852,0.0,0.0
154159.9461439017,154159.9461439017,154159.9461439017,154159.9461439017,0.1094224618893933,0.6526444111170773,0.10151204893837164,0.21292536084342184,0.0,0.5263037171643891
154159.9511439017,154159.9511439017,154159.9511439017,154159.9511439017,0.11046215339986334,0.1339722276804161,0.10258999362845854,0.2124065902689096,0.0,0.5220322951723576
154159.9561439017,154159.9561439017,154159.9561439017,154159.9561439017,0.11149564635297066,0.1331107794853252,0.10366272736892176,0.21188354722646818,0.0,0.5177256947905533
154159.96114390172,154159.96114390172,154159.96114390172,154159.96114390172,0.11252300112917477,0.13224103620213912,0.10473014449660016,0.21135635762248722,0.0,0.5133849526994434
154159.96614390172,154159.96614390172,154159.96614390172,154159.96614390172,0.11354398085335904,0.131362912443296,0.10579212825710228,0.210825137763741,0.0,0.5090110265387591
154159.97114390173,154159.97114390173,154159.97114390173,154159.97114390173,0.11455882868024733,0.13047693716979739,0.10684858932875407,0.21029002795501278,0.0,0.5046050715415957
154159.97614390173,154159.97614390173,154159.97614390173,154159.97614390173,0.6341909074010024,0.12958277829884932,0.18959148120588895,0.20975114519859547,0.5304512076453759,0.5001680510744045
154159.98114390174,154159.98114390174,154159.98114390174,154159.98114390174,0.11656883457699964,0.12868065409055965,0.19018819362633116,0.20920862275021215,0.5358765201715233,0.49570106233015276
154159.98614390174,154159.98614390174,154159.98614390174,154159.98614390174,0.11756390512827097,0.12777066932598813,0.19078539047276213,0.20866258183242709,0.541306237101358,0.49120510342390783
154159.99114390175,154159.99114390175,154159.99114390175,154159.99114390175,0.11855228126636876,0.1268529778066265,0.1913829122631374,0.2081131531876842,0.5467389084232763,0.48668125085495034
154159.99614390175,154159.99614390175,154159.99614390175,154159.99614390175,0.11953370687161147,0.1259274940570914,0.1919806030794039,0.20756048149960815,0.5521731165295042,0.4821306959106174
154160.00114390175,154160.00114390175,154160.00114390175,154160.00114390175,0.12050794799539163,0.1249941733389976,0.1925782845725912,0.20700466970860895,0.5576072398702461,0.4775542861754729
154160.00614390176,154160.00614390176,154160.00614390176,154160.00614390176,0.12147575002788369,0.12405400426374628,0.19317582527183255,0.20644588366700917,0.5630400831116763,0.4729533872344071
154160.01114390176,154160.01114390176,154160.01114390176,154160.01114390176,0.12243603807763621,0.1231060408424616,0.19377305516422622,0.20588424891201249,0.5684701004955809,0.4683290327281063
154160.01614390177,154160.01614390177,154160.01614390177,154160.01614390177,0.12338908189430993,0.12215076774665434,0.19436981621886293,0.2053199006911458,0.5738958552040855,0.46368233624953253
154160.02114390177,154160.02114390177,154160.02114390177,154160.02114390177,0.12433490191321474,0.12118839108882107,0.19496595710858905,0.2047529819683377,0.5793159713698977,0.45901447492649255
154160.02614390178,154160.02614390178,154160.02614390178,154160.02614390178,0.12527311548123196,0.120218730380126,0.195561318580121,0.1273009116647136,0.5847290010613093,0.0
154160.03114390178,154160.03114390178,154160.03114390178,154160.03114390178,0.1262039345031479,0.11924217259259669,0.1961557440764655,0.12638198341378235,0.5901335208612981,0.0
154160.0361439018,154160.0361439018,154160.0361439018,154160.0361439018,0.1271269792910839,0.431484905388155,0.1967490795173954,0.1627918985369548,0.5955281298716127,0.11351782692021264
154160.0411439018,154160.0411439018,154160.0411439018,154160.0411439018,0.12804253707007657,0.11726830605769269,0.19734118142371218,0.16207317013043912,0.6009115235786108,0.10760000414320718
154160.0461439018,154160.0461439018,154160.0461439018,154160.0461439018,0.12895021071573592,0.11627126072391927,0.1979318998145114,0.1613509743778351,0.6062823383551049,0.1016536321402754
154160.0511439018,154160.0511439018,154160.0511439018,154160.0511439018,0.12984991625317083,0.11526752687677475,0.19852107365297422,0.16062544991024647,0.6116391100534749,0.09567985236387093
154160.0561439018,154160.0561439018,154160.0561439018,154160.0561439018,0.130741598273901,0.21348077725729414,0.12386109292226845,0.16613076708737518,0.0,0.14100920221299323
154160.0611439018,154160.0611439018,154160.0611439018,154160.0611439018,0.13162525026893165,0.11324055927628668,0.12480035024793101,0.16542664951132177,0.0,0.13521168121412372
154160.06614390181,154160.06614390181,154160.06614390181,154160.06614390181,0.13250069230374734,0.11221752308432374,0.12573215589698586,0.16472003719262512,0.0,0.12939361915314632
154160.07114390182,154160.07114390182,154160.07114390182,154160.07114390182,0.13336815838851312,0.11118846911493141,0.12665643062596216,0.16401109873449696,0.0,0.1235564042650571
154160.07614390182,154160.07614390182,154160.07614390182,154160.07614390182,0.13422713443892054,0.11015317925725601,0.12757307691176517,0.16329999947767393,0.0,0.11770139792248097
154160.08114390183,154160.08114390183,154160.08114390183,154160.08114390183,0.13507763086676644,0.10911183300249798,0.1284820123777743,0.16258691637148237,0.0,0.11183005708015109
154160.08614390183,154160.08614390183,154160.08614390183,154160.08614390183,0.13591958322520678,0.10806455159277015,0.12938310731446886,0.16187198594492722,0.0,0.10594350588238652
154160.09114390184,154160.09114390184,154160.09114390184,154160.09114390184,0.13675307958240346,0.1070115551214483,0.1302763017322895,0.16115540112296897,0.0,0.10004333282313739
154160.09614390184,154160.09614390184,154160.09614390184,154160.09614390184,0.13757765836641972,0.10595269964472123,0.13116148997503688,0.16043732761552637,0.0,0.09413090231477778
154160.10114390185,154160.10114390185,154160.10114390185,154160.10114390185,0.13839376352404545,0.10488843118156779,0.1320385950177371,0.1597179416854172,0.007180057832340802,0.08820766565950804
154160.10614390185,154160.10614390185,154160.10614390185,154160.10614390185,0.13920086991302114,0.10381857296272215,0.13290752845265566,0.158997422797004,0.01508040528171738,0.08227510052021535
154160.11114390186,154160.11114390186,154160.11114390186,154160.11114390186,0.18829231678890698,0.1027433879064623,0.13742205549600536,0.1582759448185595,0.05612650936610231,0.07633463848303902
154160.11614390186,154160.11614390186,154160.11614390186,154160.11614390186,0.14078807906099702,0.10166272919133018,0.13825184350714023,0.11857921462574283,0.06367094641254538,0.0
154160.12114390187,154160.12114390187,154160.12114390187,154160.12114390187,0.14156845621214142,0.10057720438695565,0.13907369724019344,0.11761706952457583,0.07114324496012757,0.0
154160.12614390187,154160.12614390187,154160.12614390187,154160.12614390187,0.2663246348071592,0.09948647581835768,0.15078224084885747,0.11665090909879612,0.17759738622963997,0.0
154160.13114390188,154160.13114390188,154160.13114390188,154160.13114390188,0.14310123584553364,0.09839084451582443,0.1515300113500642,0.115680894335846,0.18439611963605018,0.0
154160.13614390188,154160.13614390188,154160.13614390188,154160.13614390188,0.2908087961719895,0.09729031098614349,0.16485939081680276,0.10547644031454985,0.3055869092178668,0.0
154160.14114390188,154160.14114390188,154160.14114390188,154160.14114390188,0.1445967223812522,0.09618509996972274,0.16553717585916294,0.10441282864602897,0.3117493344571922,0.0
154160.1461439019,154160.1461439019,154160.1461439019,154160.1461439019,0.14533024319635265,0.09507521182173173,0.16620870757675757,0.1033438266146092,0.31785490443421976,0.0
154160.1511439019,154160.1511439019,154160.1511439019,154160.1511439019,0.14605434265427866,0.0939608694625439,0.16687385897093193,0.10226953154399215,0.32390246447649984,0.0
154160.1561439019,154160.1561439019,154160.1561439019,154160.1561439019,0.14676879545789911,0.09284211195383252,0.16753251785587892,0.10119005885189776,0.3298909945900727,0.0
154160.1611439019,154160.1611439019,154160.1611439019,154160.1611439019,0.14747359318713826,0.09171907957520302,0.16818457252246588,0.10010552108405595,0.33581947911490545,0.0
154160.1661439019,154160.1661439019,154160.1661439019,154160.1661439019,0.14816832017513398,0.09059174049053798,0.16882989311590388,0.09901602198581438,0.3416867374105606,0.0
154160.1711439019,154160.1711439019,154160.1711439019,154160.1711439019,0.14885384001183877,0.08946059569732909,0.16946839415202164,0.09792168012349672,0.3474919922544947,0.0
154160.17614390192,154160.17614390192,154160.17614390192,154160.17614390192,0.14952912127330467,0.0883253595376851,0.1700999580927746,0.09682260892567637,0.3532341749901762,0.0
154160.18114390192,154160.18114390192,154160.18114390192,154160.18114390192,0.15019452097556954,0.08718631871071246,0.17072446592377843,0.095718909038845,0.358912203538185,0.0
154160.18614390193,154160.18614390193,154160.18614390193,154160.18614390193,0.15084988612514827,0.0860435532174734,0.17134181812220756,0.09461069895883177,0.3645251730364569,0.0
154160.19114390193,154160.19114390193,154160.19114390193,154160.19114390193,0.15149515349536785,0.08489717920599645,0.16904605200388986,0.09349808721248536,0.34365205517914227,0.0
154160.19614390194,154160.19614390194,154160.19614390194,154160.19614390194,0.1521302880642267,0.08374732084010902,0.16965911125519617,0.09238120082014885,0.34922599317915537,0.0
154160.20114390194,154160.20114390194,154160.20114390194,154160.20114390194,0.15275480433339106,0.32254452674167977,0.17026446835788508,0.12001764920426326,0.35472990320264136,0.0
154160.20614390195,154160.20614390195,154160.20614390195,154160.20614390195,0.1533698432374719,0.08143759097186572,0.161329113281014,0.11916435611184918,0.27348960693363145,0.0
154160.21114390195,154160.21114390195,154160.21114390195,154160.21114390195,0.15397420608362944,0.0802779699545505,0.1619535846143844,0.11831264050607407,0.279167303644961,0.0
154160.21614390195,154160.21614390195,154160.21614390195,154160.21614390195,0.15456803716136575,0.07911528241966477,0.1497883797420741,0.11746273817600497,0.1685611957178242,0.0
154160.22114390196,154160.22114390196,154160.22114390196,154160.22114390196,0.15515150743716277,0.07794971018368779,0.1504469834835339,0.11661488477527494,0.1745492244665161,0.0
154160.22614390196,154160.22614390196,154160.22614390196,154160.22614390196,0.15572447754554167,0.07678134636980255,0.15109557214475972,0.11576932367477116,0.1804461960520209,0.0
154160.23114390197,154160.23114390197,154160.23114390197,154160.23114390197,0.1562867997375717,0.0756102854256932,0.15173406907977088,0.11492629462448434,0.18625141360867184,0.0
154160.23614390197,154160.23614390197,154160.23614390197,154160.23614390197,0.15683859554010224,0.0744366875576556,0.15236241934178357,0.11408604588213465,0.19196437756001558,0.0
154160.24114390198,154160.24114390198,154160.24114390198,154160.24114390198,0.15737961583183294,0.07326062473330536,0.15298055269272667,0.11324882544052066,0.19758444930113303,0.0
154160.24614390198,154160.24614390198,154160.24614390198,154160.24614390198,0.15790989115598802,0.07208223491632357,0.15358842621111807,0.11241489240864269,0.2031112385896786,0.0
154160.251143902,154160.251143902,154160.251143902,154160.251143902,0.1584291017393147,0.07090158424283774,0.15418592454561655,0.11158448733739006,0.2085436966506396,0.0
154160.256143902,154160.256143902,154160.256143902,154160.256143902,0.1589380877556215,0.06971896411315578,0.15477304894555122,0.11075788060255598,0.21388183484292275,0.0
154160.261143902,154160.261143902,154160.261143902,154160.261143902,0.1594358280994275,0.06853430434668088,0.15534971355563817,0.10993532944164217,0.21912487256982668,0.0
154160.266143902,154160.266143902,154160.266143902,154160.266143902,0.15992236312582675,0.06734775115492637,0.1559158447113538,0.10911709681759776,0.22427214007310764,0.0
154160.271143902,154160.271143902,154160.271143902,154160.271143902,0.16039851515223344,0.06615955847814728,0.15647142555498272,0.10830345366933837,0.22932348408232692,0.0
154160.276143902,154160.276143902,154160.276143902,154160.276143902,0.16086324886052925,0.06496969239834027,0.15701637504787438,0.1074946674287099,0.23427816779363927,0.0
154160.28114390202,154160.28114390202,154160.28114390202,154160.28114390202,0.1613168937440364,0.06377833075219184,0.15755066298081075,0.07285017165056346,0.23913591654467228,0.0
154160.28614390202,154160.28614390202,154160.28614390202,154160.28614390202,0.16175963131006402,0.06258561778923889,0.15807420172144815,0.07167602392145539,0.2438959335816875,0.0
154160.29114390202,154160.29114390202,154160.29114390202,154160.29114390202,0.1621909368845562,0.06139161709814009,0.15858694300492857,0.07049983008531194,0.24855778008033702,0.0
154160.29614390203,154160.29614390203,154160.29614390203,154160.29614390203,0.1626113488322174,0.06019650898557737,0.1590888644208582,0.06932171758124986,0.25312125228520027,0.0
154160.30114390203,154160.30114390203,154160.30114390203,154160.30114390203,0.16302025448827237,0.059000356977085895,0.1595798941041932,0.0681418067618623,0.2575856967989132,0.0
154160.30614390204,154160.30614390204,154160.30614390204,154160.30614390204,0.16341782862268192,0.05780330357916202,0.16005998005470648,0.06696022140730311,0.26195064083513214,0.0
154160.31114390204,154160.31114390204,154160.31114390204,154160.31114390204,0.16380395536266104,0.05660546472855133,0.1605290720286456,0.06577708728616169,0.2662156275773909,0.0
154160.31614390205,154160.31614390205,154160.31614390205,154160.31614390205,0.164178930297242,0.05540697974387288,0.1609871313887783,0.06459252875691354,0.27038030573576616,0.0
154160.32114390205,154160.32114390205,154160.32114390205,154160.32114390205,0.3728745437399672,0.05420795123656692,0.18182010089895825,0.06340667314070493,0.4597937762257304,0.0
154160.32614390206,154160.32614390206,154160.32614390206,154160.32614390206,0.27413998411850893,0.05300850215154672,0.19025541756775907,0.062219647163382776,0.536487720607431,0.0
154160.33114390206,154160.33114390206,154160.33114390206,154160.33114390206,0.16523512734916027,0.4094213521597889,0.19061690141063783,0.11846396098771433,0.5397743336451095,0.0
154160.33614390207,154160.33614390207,154160.33614390207,154160.33614390207,0.16556408283544974,0.05060881663483691,0.19096907462990165,0.11785581212082474,0.5429762944429586,0.0
154160.34114390207,154160.34114390207,154160.34114390207,154160.34114390207,0.16588153921288668,0.05059117664047359,0.19131190194449177,0.11728767931141851,0.5460932822254031,0.0
154160.34614390208,154160.34614390208,154160.34614390208,154160.34614390208,0.3995822818841315,0.051791111555931836,0.21208706039293776,0.11679281740081009,0.7349811342321074,0.0
154160.35114390208,154160.35114390208,154160.35114390208,154160.35114390208,0.166481621054871,0.05299086480285526,0.21237984624604486,0.11637223136267158,0.7376431447784332,0.0
154160.35614390209,154160.35614390209,154160.35614390209,154160.35614390209,0.16676428194827161,0.05419032207347123,0.21266413166711617,0.1160267937249103,0.7402278693511114,0.0
154160.3611439021,154160.3611439021,154160.3611439021,154160.3611439021,0.16703535101218253,0.05538936537406752,0.21293986748672072,0.1157572287473692,0.742734860901412,0.0
154160.3661439021,154160.3661439021,154160.3661439021,154160.3661439021,0.16729438560928855,0.45094926413600295,0.21320697511148298,0.16082483782579146,0.7451634048579434,0.09732156060494637
154160.3711439021,154160.3711439021,154160.3711439021,154160.3711439021,0.16754185292445917,0.057785689890333995,0.2134654246378215,0.1607413121083942,0.7475132293371827,0.09663383157072682
154160.3761439021,154160.3761439021,154160.3761439021,154160.3761439021,0.4075000337471576,0.05898276069967699,0.2330093381964268,0.16071318728151943,0.9252065962036962,0.0964022590607633
154160.3811439021,154160.3811439021,154160.3811439021,154160.3811439021,0.16800170018839358,0.060178922294046755,0.23323038434139517,0.16074049692439155,0.9272163489389664,0.0966271195576567
154160.3861439021,154160.3861439021,154160.3861439021,154160.3861439021,0.1682135744438243,0.06137403863418443,0.23344338376734605,0.16082320812339454,0.9291529408617843,0.0973081420592526
154160.39114390212,154160.39114390212,154160.39114390212,154160.39114390212,0.8243725145026177,0.06256808264340911,0.30869597924888925,0.1609612248854806,1.0,0.09844453618376053
154160.39614390212,154160.39614390212,154160.39614390212,154160.39614390212,0.5156849922866025,0.06376082452737027,0.3320078699920923,0.1611543832800981,1.0,0.10003495216965261
154160.40114390213,154160.40114390213,154160.40114390213,154160.40114390213,0.16877907145207294,0.5578488006952015,0.3214341457999127,0.2126894077149278,1.0,0.5243609404695357
154160.40614390213,154160.40614390213,154160.40614390213,154160.40614390213,0.16894409975450864,0.06614207269178142,0.316870235598036,0.2129192069403385,1.0,0.5262530475268682
154160.41114390214,154160.41114390214,154160.41114390214,154160.41114390214,0.5150185782506004,0.06733031876224678,0.33952627180754125,0.18746015362703067,1.0,0.3166298237713431
154160.41614390214,154160.41614390214,154160.41614390214,154160.41614390214,0.16923762239163426,0.06851681931851668,0.33963945361847353,0.1878154428844755,1.0,0.31955518311580705
154160.42114390215,154160.42114390215,154160.42114390215,154160.42114390215,0.16936704313440837,0.06970155859064986,0.33974695045693015,0.18819755070974703,1.0,0.32270135957295615
154160.42614390215,154160.42614390215,154160.42614390215,154160.42614390215,0.1694841935601958,0.07088427680632405,0.32748155839180093,0.18858607964145335,1.0,0.3259004057505293
154160.43114390215,154160.43114390215,154160.43114390215,154160.43114390215,0.16958926469155447,0.5794022920239011,0.32758120423960574,0.23742555875507027,1.0,0.7280319749155741
154160.43614390216,154160.43614390216,154160.43614390216,154160.43614390216,0.16968262928307393,0.07324333060036425,0.3276748574124031,0.2377449170951827,1.0,0.7306614884314042
154160.44114390216,154160.44114390216,154160.44114390216,154160.44114390216,0.16976375758754397,0.07441940204118093,0.32776248257944907,0.23806939577531142,1.0,0.7333331614952634
154160.44614390217,154160.44614390217,154160.44614390217,154160.44614390217,0.16983299294803303,0.0755930475315367,0.32784407057925374,0.21053379557796836,1.0,0.5066121907515021
154160.45114390217,154160.45114390217,154160.45114390217,154160.45114390217,0.16989025820721212,0.11846518484782742,0.3279195958211353,0.21211531052595844,1.0,0.5196339735230532
154160.45614390218,154160.45614390218,154160.45614390218,154160.45614390218,0.1699355437764646,0.07793255045151118,0.31457530822430024,0.2124972052334604,1.0,0.522778395223914
154160.46114390218,154160.46114390218,154160.46114390218,154160.46114390218,0.16996874916998297,0.07909815059007015,0.3146413431530845,0.21288435981343237,1.0,0.5259661253467389
154160.4661439022,154160.4661439022,154160.4661439022,154160.4661439022,0.16998968347594798,0.08026076998065304,0.3147009972775665,0.21327667316047713,1.0,0.5291963314159825
154160.4711439022,154160.4711439022,154160.4711439022,154160.4711439022,0.16999948843467047,0.08142058425447651,0.24159590052407237,0.21367404726666672,1.0,0.532468206459855
154160.4761439022,154160.4761439022,154160.4761439022,154160.4761439022,0.16999665994279364,0.08257709430261391,0.20869611872329347,0.21407637500494658,0.7041506743899565,0.5357808684220502
154160.4811439022,154160.4811439022,154160.4811439022,154160.4811439022,0.16998207182994104,0.08373041179718595,0.20875713300778004,0.16375946667040125,0.7047054165916582,0.12148453129213606
154160.4861439022,154160.4861439022,154160.4861439022,154160.4861439022,0.16995538558821177,0.08488032936796819,0.2088084309772093,0.16429860455136971,0.7051718180047615,0.12592365238853032
154160.4911439022,154160.4911439022,154160.4911439022,154160.4911439022,0.1699166781488936,0.08602675158374017,0.16978716734571492,0.164843056701644,0.3503902798407703,0.13040652979628797
154160.49614390222,154160.49614390222,154160.49614390222,154160.49614390222,0.1698660075822155,0.08716957992968119,0.1698263824512509,0.16539266054972285,0.3507468237905692,0.13493182494394793
154160.50114390222,154160.50114390222,154160.50114390222,154160.50114390222,0.16980316359443845,0.08830863169781415,0.16985359907326145,0.16594724722442444,0.3509942774638208,0.1394981473901183
154160.50614390222,154160.50614390222,154160.50614390222,154160.50614390222,0.1697285719515676,0.0894439262885391,0.16986884980776573,0.166506654715619,0.35113293722370603,0.14410416318552494
154160.51114390223,154160.51114390223,154160.51114390223,154160.51114390223,0.16964203037566347,0.09057528557556599,0.16987214271540516,0.08517934146109286,0.3511628763576198,0.0
154160.51614390223,154160.51614390223,154160.51614390223,154160.51614390223,0.3271510968661863,0.09170234987323492,0.18370158604240117,0.08628914288699875,0.47690024923816804,0.0
154160.52114390224,154160.52114390224,154160.52114390224,154160.52114390224,0.16943283759767308,0.09282564241443242,0.18368249040430754,0.08739687185915586,0.4767266315942327,0.0
154160.52614390224,154160.52614390224,154160.52614390224,154160.52614390224,0.16931037911034366,0.6007723875770855,0.18365233381971663,0.1727397906194853,0.4764524477654369,0.19542618314420795
154160.53114390225,154160.53114390225,154160.53114390225,154160.53114390225,0.5926468397108029,0.09505885236111121,0.23211237206689714,0.17183326758870784,0.9170513753446081,0.18796210827144477
154160.53614390225,154160.53614390225,154160.53614390225,154160.53614390225,0.16902948962331113,0.09616876913148212,0.23207101978543948,0.17240970450858228,0.91667540017987,0.1927083399536976
154160.54114390226,154160.54114390226,154160.54114390226,154160.54114390226,0.16887105031190755,0.0972739925444179,0.2320209294879316,0.17298977779383176,0.9162199789263514,0.19748451252272606
154160.54614390226,154160.54614390226,154160.54614390226,154160.54614390226,0.16870112811267837,0.09837464910603527,0.2319621420708206,0.17357332599066685,0.9156854834147685,0.20228929661001788
154160.55114390227,154160.55114390227,154160.55114390227,154160.55114390227,0.16851875691859736,0.2809866106956639,0.23189460308385207,0.18613962430412506,0.9150714185831161,0.30575692876128086
154160.55614390227,154160.55614390227,154160.55614390227,154160.55614390227,0.46054915299380583,0.47120176666083535,0.2553928798148897,0.21931419872213626,1.0,0.5789077466900069
154160.56114390228,154160.56114390228,154160.56114390228,154160.56114390228,0.39251441193375386,0.10164689587016057,0.2702755570471533,0.21978694139985255,1.0,0.5828001869504588
154160.56614390228,154160.56614390228,154160.56614390228,154160.56614390228,0.16790198321107308,0.3441626178224825,0.27019533104197946,0.23507233340921432,1.0,0.7086561294294546
154160.57114390229,154160.57114390229,154160.57114390229,154160.57114390229,0.16767290622599562,0.10380281810092074,0.27010770960850905,0.2355204945977217,1.0,0.7123461721007552
154160.5761439023,154160.5761439023,154160.5761439023,154160.5761439023,0.16743185568128355,0.10487273643755113,0.2700127036831128,0.2359711594124998,1.0,0.716056828979642
154160.5811439023,154160.5811439023,154160.5811439023,154160.5811439023,0.16717901973031665,0.10593714729005378,0.26991034074711057,0.23642420481193396,1.0,0.7197870869734597
154160.5861439023,154160.5861439023,154160.5861439023,154160.5861439023,0.16691426970229523,0.10699586817732581,0.2698006275438719,0.2368795017767993,1.0,0.7235358837714653
154160.5911439023,154160.5911439023,154160.5911439023,154160.5911439023,0.16663834171815095,0.1080491400897424,0.26968360819088444,0.2373369319276701,1.0,0.7273022446682544
154160.5961439023,154160.5961439023,154160.5961439023,154160.5961439023,0.166350285519126,0.10909637686100478,0.2603258239376687,0.23779636858315317,1.0,0.7310851266021822
154160.6011439023,154160.6011439023,154160.6011439023,154160.6011439023,0.1660505294398716,0.11013766712963148,0.2601895757918733,0.23825767464192824,1.0,0.7348834007166339
154160.60614390232,154160.60614390232,154160.60614390232,154160.60614390232,0.1657398130012281,0.1111732781064815,0.2600458525374988,0.18703267570506432,1.0,0.3131100817375709
154160.61114390232,154160.61114390232,154160.61114390232,154160.61114390232,0.1654171181511515,0.1848290672683502,0.21767436589856864,0.19118465341087934,0.7857809458476378,0.34729638634769033
154160.61614390233,154160.61614390233,154160.61614390233,154160.61614390233,0.16508287772355437,0.11322562408806848,0.217484979548111,0.1917675606351471,0.7840590441338143,0.3520958928335628
154160.62114390233,154160.62114390233,154160.62114390233,154160.62114390233,0.16473714083355326,0.1142423697883739,0.21728672808084185,0.19235154119810965,0.7822565407304072,0.3569042369111011
154160.62614390234,154160.62614390234,154160.62614390234,154160.62614390234,0.1643798854776291,0.2926594180768449,0.21707962699842298,0.2043217147391203,0.7803735765786084,0.4554635327223138
154160.63114390234,154160.63114390234,154160.63114390234,154160.63114390234,0.16401123823696276,0.11625646173540943,0.21686374555222224,0.19405538824778082,0.7784107813122257,0.37093327039255086
154160.63614390235,154160.63614390235,154160.63614390235,154160.63614390235,0.1636312187057296,0.11725364900835598,0.18827303968751644,0.15697078004947165,0.5184639302910379,0.06558825121319821
154160.64114390235,154160.64114390235,154160.64114390235,154160.64114390235,0.1632399719039999,0.11824419374476107,0.16577988501744417,0.1576956741923631,0.313956047425657,0.07155684105997683
154160.64614390236,154160.64614390236,154160.64614390236,154160.64614390236,0.16283722992034913,0.11922781242043008,0.16546382004540172,0.13547466882499662,0.3110823830051518,0.0
154160.65114390236,154160.65114390236,154160.65114390236,154160.65114390236,0.16242239191707206,0.12020399995141161,0.1651361638576755,0.13631951227963165,0.3081033311894992,0.0
154160.65614390236,154160.65614390236,154160.65614390236,154160.65614390236,0.16199787568881463,0.12117414466616526,0.16479705838714084,0.13716163670515322,0.3050201824331631,0.0
154160.66114390237,154160.66114390237,154160.66114390237,154160.66114390237,0.1615612797522703,0.12213661860811721,0.16444648630445047,0.13800083961865348,0.30183277917762474,0.0
154160.66614390237,154160.66614390237,154160.66614390237,154160.66614390237,0.1611138159101935,0.8119968783072121,0.16408451289902604,0.24400288450406826,0.29854171503465604,0.7821879645443984
154160.67114390238,154160.67114390238,154160.67114390238,154160.67114390238,0.16065515712857126,0.12404015037477012,0.16371113671540508,0.2444777424137719,0.2951469767711845,0.7860978210749182
154160.67614390238,154160.67614390238,154160.67614390238,154160.67614390238,0.1601852478888928,0.12498070703617159,0.16332641333831543,0.24495254926449744,0.2916490697638537,0.7900072571990914
154160.6811439024,154160.6811439024,154160.6811439024,154160.6811439024,0.15970454108160556,0.12591391589970774,0.16293039902404582,0.24542718252508952,0.28804850549514216,0.7939152640272518
154160.6861439024,154160.6861439024,154160.6861439024,154160.6861439024,0.1592127168017231,0.1268394321604893,0.16252308343660377,0.24590150143669212,0.28434518999015096,0.7978206825875868
154160.6911439024,154160.6911439024,154160.6911439024,154160.6911439024,0.47107679736305585,0.1277571846563146,0.19640051050599733,0.2436237992101156,0.5923589385510042,0.7790666748240485
154160.6961439024,154160.6961439024,154160.6961439024,154160.6961439024,0.15819635452030292,0.12866731820259822,0.19604596057083867,0.2441024535784677,0.5891353686394956,0.7830077904077212
154160.7011439024,154160.7011439024,154160.7011439024,154160.7011439024,0.15767169353111293,0.4775606893733433,0.1956825132499773,0.2702301124121263,0.5858309036494713,0.9981361381312065
154160.7061439024,154160.7061439024,154160.7061439024,154160.7061439024,0.15713677096957085,0.1304637757780115,0.1953102586127943,0.26217364001143223,0.5824463624922274,0.9318012396592302
154160.71114390242,154160.71114390242,154160.71114390242,154160.71114390242,0.15659091181756016,0.39228468657208243,0.19492924698883993,0.2784030341399435,0.5789822027643042,1.0
154160.71614390242,154160.71614390242,154160.71614390242,154160.71614390242,0.15603436444513924,0.13222807047487095,0.19453954104160529,0.27882205740276333,0.5754389942024992,1.0
154160.72114390242,154160.72114390242,154160.72114390242,154160.72114390242,0.15546736709961667,0.13309803754270585,0.19414120863828135,0.27924017813438046,0.5718173538556766,1.0
154160.72614390243,154160.72614390243,154160.72614390243,154160.72614390243,0.8062395376079997,0.13395956895313604,0.27687532966331974,0.27965728224604186,1.0,1.0
154160.73114390243,154160.73114390243,154160.73114390243,154160.73114390243,0.15430150373101267,0.13481273268909005,0.27658487525038544,0.280073271607478,1.0,1.0
154160.73614390244,154160.73614390244,154160.73614390244,154160.73614390244,0.15370258256957725,0.13565714077865423,0.2762888279994788,0.2804879995217399,1.0,1.0
154160.74114390244,154160.74114390244,154160.74114390244,154160.74114390244,0.15309395585626334,0.13649353253654414,0.2759873158138044,0.28090138581344265,1.0,1.0
154160.74614390245,154160.74614390245,154160.74614390245,154160.74614390245,0.15247464154526844,0.13732096148313816,0.2756803890466903,0.19716863545462124,1.0,0.3965669382204368
154160.75114390245,154160.75114390245,154160.75114390245,154160.75114390245,0.15184490371545295,0.4891405929424393,0.27536812017634926,0.2299293497022078,1.0,0.6663101391399682
154160.75614390246,154160.75614390246,154160.75614390246,154160.75614390246,0.15120536544640673,0.13894956695495073,0.2750506060993432,0.2304298834105222,1.0,0.670431403518653
154160.76114390246,154160.76114390246,154160.76114390246,154160.76114390246,0.15055563430399913,0.139750673661508,0.2747279146296898,0.2309278614726139,1.0,0.6745316253709961
154160.76614390247,154160.76614390247,154160.76614390247,154160.76614390247,0.14989537132177486,0.140542375825217,0.2744001146114872,0.23142314506127587,1.0,0.6786096616298799
154160.77114390247,154160.77114390247,154160.77114390247,154160.77114390247,0.43064218756036154,0.14132559698147332,0.2702158987589481,0.23191563380512153,1.0,0.6826646858634116
154160.77614390248,154160.77614390248,154160.77614390248,154160.77614390248,0.14854593727927998,0.14209943797925606,0.269873340658674,0.23240518910303395,1.0,0.6866955568660406
154160.78114390248,154160.78114390248,154160.78114390248,154160.78114390248,0.1478564101732355,0.14286420308203704,0.26952586553296587,0.20256800081080706,1.0,0.4410239083311811
154160.7861439025,154160.7861439025,154160.7861439025,154160.7861439025,0.3019839687964662,0.14361946401339687,0.2771291923092946,0.20312349582412823,1.0,0.44559770980131014
154160.7911439025,154160.7911439025,154160.7911439025,154160.7911439025,0.14644779455387394,0.631332945206585,0.2767823683132958,0.23780775918760752,1.0,0.7311789138768644
154160.7961439025,154160.7961439025,154160.7961439025,154160.7961439025,0.14572895142601175,0.1451020597717098,0.27643103513148143,0.23827647156268172,1.0,0.7350381696735364
154160.8011439025,154160.8011439025,154160.8011439025,154160.8011439025,0.14500025047641926,0.14582878002882513,0.2760752666107486,0.2387417244498696,1.0,0.7388689409466737
154160.8061439025,154160.8061439025,154160.8061439025,154160.8061439025,0.14426263358769512,0.14654650438229766,0.19207263612928296,0.2392034290783318,0.5530098815124728,0.7426704967802719
154160.8111439025,154160.8111439025,154160.8111439025,154160.8111439025,0.1435154674941148,0.14725445471009915,0.19154929133104903,0.2396614655694294,0.5482516278008297,0.7464418501247955
154160.8161439025,154160.8161439025,154160.8161439025,154160.8161439025,0.1427586545726269,0.14795237134911352,0.19101924734788875,0.24011571866573198,0.5434324650639163,0.7501820519805377
154160.82114390252,154160.82114390252,154160.82114390252,154160.82114390252,0.1419926000479351,0.14864052537359196,0.1904825754607091,0.24056605836090117,0.5385530413881209,0.7538900319091197
154160.82614390252,154160.82614390252,154160.82614390252,154160.82614390252,0.14121771669489874,0.1493192141446135,0.18993941666694647,0.24101240064244092,0.5336146387228912,0.7575650981734985
154160.83114390253,154160.83114390253,154160.83114390253,154160.83114390253,0.14043345408435112,0.1499876941321823,0.18938987438320598,0.21104345301115235,0.5286181973325553,0.5108085775079236
154160.83614390253,154160.83614390253,154160.83614390253,154160.83614390253,0.13964010125885573,0.15064612203809524,0.1888340355381523,0.21154442454099265,0.5235645075729989,0.5149334467951868
154160.84114390254,154160.84114390254,154160.84114390254,154160.84114390254,0.13883797083922061,0.15129469604052787,0.18827202241173202,0.21204016882586574,0.5184546812141515,0.5190152763068582
154160.84614390254,154160.84614390254,154160.84614390254,154160.84614390254,0.7146133203453529,0.15193293864403118,0.25682499465095104,0.21253058450103726,1.0,0.5230532314320773
154160.85114390255,154160.85114390255,154160.85114390255,154160.85114390255,0.3007946594308196,0.15256070271791025,0.24499617082144184,0.21301552660916137,1.0,0.5270461186297579
154160.85614390255,154160.85614390255,154160.85614390255,154160.85614390255,0.1363781944951607,0.5263579838399127,0.2445535595639386,0.2478495398048041,1.0,0.8138603238773762
154160.86114390256,154160.86114390256,154160.86114390256,154160.86114390256,0.13554075013543948,0.15378628800352276,0.244107157930212,0.24825772293612636,1.0,0.8172211976230497
154160.86614390256,154160.86614390256,154160.86614390256,154160.86614390256,0.13469491799020522,0.1543834692207063,0.23456892328889317,0.2486611722158303,0.939386352226673,0.8205430940656475
154160.87114390256,154160.87114390256,154160.87114390256,154160.87114390256,0.1338406406953997,0.15497024471940718,0.23409768753378254,0.1960153925921994,0.9351018742145083,0.38707143641921515
154160.87614390257,154160.87614390257,154160.87614390257,154160.87614390257,0.1329779639815792,0.15554650491118543,0.23362280611056485,0.19651537051355517,0.9307842497683667,0.3911881245926279
154160.88114390257,154160.88114390257,154160.88114390257,154160.88114390257,0.33537906950887386,0.15611224523917686,0.24555140706504908,0.1970085108564791,1.0,0.39524851392350646
154160.88614390258,154160.88614390258,154160.88614390258,154160.88614390258,0.13122782787514675,0.15666733929239313,0.24509397834621247,0.19749468835459952,1.0,0.3992515730011244
154160.89114390258,154160.89114390258,154160.89114390258,154160.89114390258,0.1303403871971733,0.1572115940138731,0.24463350887984373,0.19797380535580023,1.0,0.403196497783354
154160.8961439026,154160.8961439026,154160.8961439026,154160.8961439026,0.12944500443063747,0.6339896071004842,0.24417012951865324,0.25089227761089283,1.0,0.8389134356371026
154160.9011439026,154160.9011439026,154160.9011439026,154160.9011439026,0.12854135359362065,0.5143528474912816,0.24370394635471665,0.2794655396215642,1.0,1.0
154160.9061439026,154160.9061439026,154160.9061439026,154160.9061439026,0.12763044700724102,0.158780109613998,0.24323508471699623,0.27979129508347617,1.0,1.0
154160.9111439026,154160.9111439026,154160.9111439026,154160.9111439026,0.46714744438667033,0.15928136385678432,0.2675254757457088,0.28011213662487133,1.0,1.0
154160.9161439026,154160.9161439026,154160.9161439026,154160.9161439026,0.12578498805470503,0.1597716700876356,0.2670955573511828,0.2804279851662327,1.0,1.0
154160.9211439026,154160.9211439026,154160.9211439026,154160.9211439026,0.24878388146006558,0.16025104369455,0.2720360759204796,0.28073875642951873,1.0,1.0
154160.92614390262,154160.92614390262,154160.92614390262,154160.92614390262,0.12390915016041908,0.16071923298623064,0.20747579761171464,0.28104437414225103,0.6930555083002942,1.0
154160.93114390262,154160.93114390262,154160.93114390262,154160.93114390262,0.1229601483890596,0.16117650730688546,0.19579662223587255,0.28134477761791865,0.586868383161067,1.0
154160.93614390263,154160.93614390263,154160.93614390263,154160.93614390263,0.12200351477543196,0.16162214657171098,0.19520292680750057,0.2519358962856979,0.5814705011429988,0.847506320387839
154160.94114390263,154160.94114390263,154160.94114390263,154160.94114390263,0.12104021757197998,0.1620574546218802,0.19460639144662384,0.25225972845673705,0.5760467984433703,0.8501726702639947
154160.94614390263,154160.94614390263,154160.94614390263,154160.94614390263,0.12006957203970854,0.23933979689169704,0.19400714269509448,0.25636994905124477,0.570598425581379,0.8840151576795298
154160.95114390264,154160.95114390264,154160.95114390264,154160.95114390264,0.11909161525497271,0.1628931593950309,0.1934053124900075,0.25667674430276927,0.5651265821298006,0.8865412299912537
154160.95614390264,154160.95614390264,154160.95614390264,154160.95614390264,0.1181073374506737,0.16329481085517247,0.1928010701871103,0.2569773454407081,0.5596328078719982,0.8890163015826386
154160.96114390265,154160.96114390265,154160.96114390265,154160.96114390265,0.33178234549519686,0.6174535491808482,0.19241174066997194,0.29722419456935806,0.556093021814647,1.0
154160.96614390265,154160.96614390265,154160.96614390265,154160.96614390265,0.35150838390529326,0.16406298627110835,0.2089697717836928,0.29747348176578,0.7066387294823958,1.0
154160.97114390266,154160.97114390266,154160.97114390266,154160.97114390266,0.11511313512073973,0.1644301600756228,0.20841009237376723,0.2977172893358528,0.7015501212864315,1.0
154160.97614390266,154160.97614390266,154160.97614390266,154160.97614390266,0.1141019540727415,0.7152678251535581,0.20784903060921486,0.3090140156307922,0.6964489447147882,1.0
154160.98114390267,154160.98114390267,154160.98114390267,154160.98114390267,0.11308431299719297,0.16512997125192602,0.20728674201836514,0.28400524262145593,0.6913366138318714,1.0
154160.98614390267,154160.98614390267,154160.98614390267,154160.98614390267,0.11206031304599712,0.16546248639124822,0.20672334734829043,0.2842435527607985,0.6862142264707104,1.0
154160.99114390268,154160.99114390268,154160.99114390268,154160.99114390268,0.11103023074856248,0.16578368429925328,0.17281739907435406,0.2844758374718592,0.3779411629652273,1.0
154160.99614390268,154160.99614390268,154160.99614390268,154160.99614390268,0.10999394967517118,0.1660931237534589,0.17214282959769459,0.2847020342481592,0.3718079736664941,1.0
154161.0011439027,154161.0011439027,154161.0011439027,154161.0011439027,0.10895150078427175,0.6676026308308101,0.16280883544037617,0.3275760263442353,0.28694324874061106,1.0
154161.0061439027,154161.0061439027,154161.0061439027,154161.0061439027,0.1079035440078691,0.16667723888952374,0.16209510473700398,0.3277620591488416,0.28045400535862897,1.0
154161.0111439027,154161.0111439027,154161.0111439027,154161.0111439027,0.10684961535554796,0.1669518330413032,0.16137975591074258,0.3279426899940011,0.2739500499946621,1.0
154161.0161439027,154161.0161439027,154161.0161439027,154161.0161439027,0.10578998578704218,0.16721469871274264,0.16066297670905647,0.3281178869639662,0.2674330896496642,1.0
154161.0211439027,154161.0211439027,154161.0211439027,154161.0211439027,0.10472479714967971,0.16746588410786112,0.15994491673471653,0.32828758045278256,0.26090448451283044,1.0
154161.0261439027,154161.0261439027,154161.0261439027,154161.0261439027,0.3221322634554519,0.16770538663737677,0.17654151694033976,0.3255001273044786,0.41180086257095755,1.0
154161.0311439027,154161.0311439027,154161.0311439027,154161.0311439027,0.1025781561242676,0.16793309852608634,0.17589236420097884,0.32566016318842494,0.4058987623840237,1.0
154161.03614390272,154161.03614390272,154161.03614390272,154161.03614390272,0.101496832277073,0.16814888772500558,0.17524308908448244,0.32581451043860016,0.399995549543518,1.0
154161.04114390272,154161.04114390272,154161.04114390272,154161.04114390272,0.1004103156421323,0.16835275718890091,0.1563979201937737,0.2899973371488299,0.2286551729440891,1.0
154161.04614390273,154161.04614390273,154161.04614390273,154161.04614390273,0.09931885965312409,0.16854502757740145,0.13173625236198602,0.29015793670338696,0.0044311567851338714,1.0
154161.05114390273,154161.05114390273,154161.05114390273,154161.05114390273,0.09822238718837602,0.16872523818172935,0.1308786762735224,0.29031200674537794,0.0,1.0
154161.05614390274,154161.05614390274,154161.05614390274,154161.05614390274,0.09712125259577,0.16889397251814675,0.13001945244662066,0.23256908817885616,0.0,0.6880450592305469
154161.06114390274,154161.06114390274,154161.06114390274,154161.06114390274,0.096015329745358,0.16905063368608783,0.12915877097887304,0.2327450726875758,0.0,0.6894940699064294
154161.06614390275,154161.06614390275,154161.06614390275,154161.06614390275,0.09490477393177708,0.16919530961908583,0.1282968268039594,0.2329127411928987,0.0,0.6908746087731156
154161.07114390275,154161.07114390275,154161.07114390275,154161.07114390275,0.0937897363993847,0.16932808894410029,0.12743380997630432,0.23307205053983174,0.0,0.6921863205036155
154161.07614390276,154161.07614390276,154161.07614390276,154161.07614390276,0.09267031239892641,0.20865841793263198,0.12656992450721655,0.2352010710941594,0.0,0.7097161220460261
154161.08114390276,154161.08114390276,154161.08114390276,154161.08114390276,0.09154660273360044,0.1695577423146853,0.12570538064884057,0.17105723764066363,0.0,0.18157247950410849
154161.08614390276,154161.08614390276,154161.08614390276,154161.08614390276,0.09041873222297771,0.16965459160899285,0.12484036204100592,0.17124007914297004,0.0,0.18307794888186174
154161.09114390277,154161.09114390277,154161.09114390277,154161.09114390277,0.08928685498787216,0.16973957684842067,0.12397508774055871,0.1714112825689794,0.0,0.18448759336614076
154161.09614390277,154161.09614390277,154161.09614390277,154161.09614390277,0.08815105911618264,0.1698126210117231,0.12310976967095001,0.17157083367015608,0.0,0.18580129563820907
154161.10114390278,154161.10114390278,154161.10114390278,154161.10114390278,0.08701127826940015,0.16987313642031576,0.12224461277061027,0.1717186790213876,0.0,0.18701861580958482
154161.10614390278,154161.10614390278,154161.10614390278,154161.10614390278,0.08586813912237208,0.16992277787489402,0.09444047986046213,0.17185486779022546,0.0,0.18813995871309985
154161.1111439028,154161.1111439028,154161.1111439028,154161.1111439028,0.08472121489262348,0.16995978336212422,0.09332720460810755,0.17197934681798677,0.0,0.1891648866539844
154161.1161439028,154161.1161439028,154161.1161439028,154161.1161439028,0.08357083356469273,0.22756758120138454,0.0922096629900557,0.17620004385671884,0.0,0.22391700837926234
154161.1211439028,154161.1211439028,154161.1211439028,154161.1211439028,0.08241702710633582,0.6051427472106803,0.09108796780088747,0.2283908903790739,0.0,0.6536428651858539
154161.1261439028,154161.1261439028,154161.1261439028,154161.1261439028,0.08126009421713133,0.16999889331343662,0.0899622327281386,0.22845822626044032,0.0,0.6541972913207437
154161.1311439028,154161.1311439028,154161.1311439028,154161.1311439028,0.08009998572460895,0.16998794838655992,0.08883257547452948,0.22851672189008607,0.0,0.6546789291220809
154161.1361439028,154161.1361439028,154161.1361439028,154161.1361439028,0.07893686391357231,0.1699649919482535,0.08769909999030281,0.22856634696916567,0.0,0.6550875291170521
154161.14114390282,154161.14114390282,154161.14114390282,154161.14114390282,0.07777079940755614,0.1699298262995611,0.08656192433748174,0.2286070904119385,0.0,0.655423000028552
154161.14614390282,154161.14614390282,154161.14614390282,154161.14614390282,0.07660204366428153,0.16988303622608864,0.08542117159208445,0.22863896509919462,0.0,0.655685447913656
154161.15114390283,154161.15114390283,154161.15114390283,154161.15114390283,0.07543050411578942,0.459714245655623,0.0842769508806847,0.2523734345839699,0.0,0.8511088969436741
154161.15614390283,154161.15614390283,154161.15614390283,154161.15614390283,0.07425658159486317,0.1697531099654768,0.08312938872097424,0.2505438323313098,0.0,0.836044427826415
154161.16114390283,154161.16114390283,154161.16114390283,154161.16114390283,0.07308017950498875,0.16967031092610824,0.0819786010456323,0.2505485952289322,0.0,0.8360836442867342
154161.16614390284,154161.16614390284,154161.16614390284,154161.16614390284,0.07190144783356656,0.4803080760684737,0.08082470520133976,0.2745799911480311,0.0,1.0
154161.17114390284,154161.17114390284,154161.17114390284,154161.17114390284,0.07072054543300144,0.16946871364941465,0.07966781839568739,0.2745695341779282,0.0,1.0
154161.17614390285,154161.17614390285,154161.17614390285,154161.17614390285,0.20914802632730095,0.16934982526411813,0.0927104593277345,0.2745516689351328,0.0,1.0
154161.18114390285,154161.18114390285,154161.18114390285,154161.18114390285,0.06835258007957248,0.16921906793623565,0.09172812442130672,0.2745264232634312,0.0,1.0
154161.18614390286,154161.18614390286,154161.18614390286,154161.18614390286,0.06716580013484955,0.16907643723635188,0.09074782654044225,0.2744937618035265,0.0,1.0
154161.19114390286,154161.19114390286,154161.19114390286,154161.19114390286,0.06597729112838566,0.16892180787381206,0.08976984705372427,0.274453713483676,0.0,1.0
154161.19614390287,154161.19614390287,154161.19614390287,154161.19614390287,0.06478723174210489,0.16875565014379848,0.08879446358546672,0.27178678671907536,0.0,1.0
154161.20114390287,154161.20114390287,154161.20114390287,154161.20114390287,0.06359562318927355,0.16857704541202181,0.08782195950710377,0.22968856560289416,0.0,0.664327585487794
154161.20614390288,154161.20614390288,154161.20614390288,154161.20614390288,0.0624027127135146,0.16838707338336117,0.08685261970304435,0.22961434752839657,0.0,0.6637164931645386
154161.21114390288,154161.21114390288,154161.21114390288,154161.21114390288,0.06120854041747907,0.1681850723668984,0.08588674173565077,0.22953135589509438,0.0,0.6630331616398567
154161.2161439029,154161.2161439029,154161.2161439029,154161.2161439029,0.06001324401570016,0.16797120714590577,0.08492462815205615,0.2294396055292561,0.0,0.6622777129893872
154161.2211439029,154161.2211439029,154161.2211439029,154161.2211439029,0.05881696608143309,0.16774580644086018,0.08396659221335227,0.22933913630786856,0.0,0.6614504755498688
154161.2261439029,154161.2261439029,154161.2261439029,154161.2261439029,0.05761978932859368,0.16750842360908758,0.08301294505809818,0.22922994147002712,0.0,0.660551393653771
154161.2311439029,154161.2311439029,154161.2311439029,154161.2311439029,0.05642185594431015,0.16725938403992155,0.08206401831517712,0.20269749180619015,0.0,0.44209010350998323
154161.2361439029,154161.2361439029,154161.2361439029,154161.2361439029,0.05522326901893615,0.16699840619345457,0.08112013435467287,0.20255442482832411,0.0,0.44091212722217044
154161.2411439029,154161.2411439029,154161.2411439029,154161.2411439029,0.05402416557778224,0.6043475409760892,0.08018163637696955,0.2491110013822421,0.0,0.8242468704332162
154161.2461439029,154161.2461439029,154161.2461439029,154161.2461439029,0.05282466403573585,0.1664417244242256,0.07924887377880456,0.22219187314224137,0.0,0.6026017694581642
154161.25114390292,154161.25114390292,154161.25114390292,154161.25114390292,0.05162486795265302,0.16614530967654198,0.07832220126189078,0.22203494585155575,0.0,0.6013096709592957
154161.25614390292,154161.25614390292,154161.25614390292,154161.25614390292,0.3353075432813282,0.1658382462251828,0.10211455792175413,0.22186922322943275,0.0,0.5999451539888048
154161.26114390293,154161.26114390293,154161.26114390293,154161.26114390293,0.050775068267493055,0.16551922382327802,0.10147172000948054,0.221694716328102,0.0,0.5985083095478758
154161.26614390293,154161.26614390293,154161.26614390293,154161.26614390293,0.05197497987653713,0.16518841055052716,0.10091280679760453,0.22151144514962895,0.0,0.5969993023283138
154161.27114390294,154161.27114390294,154161.27114390294,154161.27114390294,0.05317470054985258,0.1648464345115677,0.10043930351406803,0.2213194658056896,0.0,0.5954185943390656
154161.27614390294,154161.27614390294,154161.27614390294,154161.27614390294,0.054374101736578175,0.1644928421808375,0.10005249140735821,0.2211187917140816,0.0,0.593766296058788
154161.28114390295,154161.28114390295,154161.28114390295,154161.28114390295,0.0555730680125392,0.1641278399506649,0.09975343953612767,0.2209094905714429,0.0,0.5920429648839911
154161.28614390295,154161.28614390295,154161.28614390295,154161.28614390295,0.05677145451988522,0.16375102082223159,0.09954298025316251,0.22069156060130907,0.0,0.590248586187729
154161.29114390296,154161.29114390296,154161.29114390296,154161.29114390296,0.05796919760587322,0.16336340753248524,0.09942170950487078,0.22046507987148245,0.0,0.5883838027599829
154161.29614390296,154161.29614390296,154161.29614390296,154161.29614390296,0.059166132189653525,0.1629642477087483,0.0993899714744055,0.22023008461110788,0.0,0.5864489129021092
154161.30114390297,154161.30114390297,154161.30114390297,154161.30114390297,0.060362138624873884,0.16255365908712152,0.09944785541782508,0.2199866017495681,0.0,0.5844441383436416
154161.30614390297,154161.30614390297,154161.30614390297,154161.30614390297,0.06155713179439479,0.16213205500359376,0.09959519802297047,0.21973469947712743,0.0,0.5823700405454821
154161.31114390297,154161.31114390297,154161.31114390297,154161.31114390297,0.06275093454099435,0.16169890691006344,0.09983157988123137,0.2194744070238247,0.0,0.5802268601801687
154161.31614390298,154161.31614390298,154161.31614390298,154161.31614390298,0.06394344745675541,0.1612545079192073,0.10015633545139567,0.21920578146864408,0.0,0.5780150672212119
154161.32114390298,154161.32114390298,154161.32114390298,154161.32114390298,0.06513466031343877,0.16079971080948974,0.100568564299627,0.16382906312316675,0.0,0.12205757038401097
154161.326143903,154161.326143903,154161.326143903,154161.326143903,0.06632428615938171,0.1603332685552263,0.10106713233312876,0.16344787015997742,0.0,0.11891892666331529
154161.331143903,154161.331143903,154161.331143903,154161.331143903,0.5480498042915112,0.1598559390784259,0.16976574021307814,0.1630553888806762,0.3501954642359475,0.11568733788354675
154161.336143903,154161.336143903,154161.336143903,154161.336143903,0.06869850830256505,0.15936729767491023,0.14862176011253095,0.16265157721830117,0.15795428379077003,0.11236245767628145
154161.341143903,154161.341143903,154161.341143903,154161.341143903,0.06988293410728247,0.1588682347156387,0.149105742299094,0.1622365309687176,0.1623546524260448,0.1089450747997598
154161.346143903,154161.346143903,154161.346143903,154161.346143903,0.07106533264879134,0.15835805676837852,0.14959721779589066,0.16181029302385752,0.16682315027814137,0.10543554241499535
154161.351143903,154161.351143903,154161.351143903,154161.351143903,0.24258188048023074,0.15783666800085672,0.1608741086057466,0.16137286049122043,0.2693527019864301,0.10183383670589109
154161.35614390302,154161.35614390302,154161.35614390302,154161.35614390302,0.07342368229838435,0.15730519985430946,0.16134631915883824,0.16092432857215386,0.27364604286706473,0.09814074153558322
154161.36114390302,154161.36114390302,154161.36114390302,154161.36114390302,0.07459942888085928,0.15676276752701981,0.16182530399297787,0.1604647254574654,0.27800097554731057,0.09435648901984987
154161.36614390303,154161.36614390303,154161.36614390303,154161.36614390303,0.07577266406880782,0.15620943721456484,0.1623109212996957,0.15999410952297669,0.2824162107037998,0.09048155981002429
154161.37114390303,154161.37114390303,154161.37114390303,154161.37114390303,0.07694336212082549,0.15564565460019875,0.16280302820315642,0.15951250111435303,0.2868904493086716,0.0865161214270233
154161.37614390303,154161.37614390303,154161.37614390303,154161.37614390303,0.07811136470763726,0.15507129908258768,0.16330147924392974,0.15901996139557187,0.29142236884400585,0.08246067747913002
154161.38114390304,154161.38114390304,154161.38114390304,154161.38114390304,0.07927650603741192,0.15448625439765054,0.1638061252293052,0.15851653712452018,0.29601061284887936,0.07831561295862535
154161.38614390304,154161.38614390304,154161.38614390304,154161.38614390304,0.0804387740269593,0.1538909581904595,0.16431681717311167,0.15800227538398767,0.300653826740225,0.07408131553295465
154161.39114390305,154161.39114390305,154161.39114390305,154161.39114390305,0.08159801024247697,0.15328531062408338,0.1648334041510155,0.15747725121058992,0.3053506383131922,0.06975840303409561
154161.39614390305,154161.39614390305,154161.39614390305,154161.39614390305,0.08275402456677936,0.15266913156610465,0.16535573056548727,0.1569415101619021,0.3100996328742093,0.06534725057127401
154161.40114390306,154161.40114390306,154161.40114390306,154161.40114390306,0.08390670227032464,0.15204250856484394,0.16588363632477252,0.1563950485158997,0.314899354868186,0.06084782749830769
154161.40614390306,154161.40614390306,154161.40614390306,154161.40614390306,0.08505623942507562,0.1514064307250405,0.16641697361895183,0.15583800271915868,0.31974846040654276,0.056261257280817364
154161.41114390307,154161.41114390307,154161.41114390307,154161.41114390307,0.08620213554023572,0.1507597996041198,0.0968845853075929,0.15527039426875078,0.0,0.051587716920100654
154161.41614390307,154161.41614390307,154161.41614390307,154161.41614390307,0.08734429746535274,0.15010278556657525,0.09781855242626088,0.15469228246114422,0.0,0.046827694647855564
154161.42114390308,154161.42114390308,154161.42114390308,154161.42114390308,0.08848291015890883,0.14943625467422228,0.09875509736560853,0.15410372202229788,0.0,0.041981641063394706
154161.42614390308,154161.42614390308,154161.42614390308,154161.42614390308,0.08961753278924639,0.1487594128531686,0.0996939468980569,0.15350476438594932,0.0,0.03704997965873648
154161.4311439031,154161.4311439031,154161.4311439031,154161.4311439031,0.09074831041348795,0.1480729848152868,0.08231472220818827,0.15289551131685256,0.0,0.03203354833839934
154161.4361439031,154161.4361439031,154161.4361439031,154161.4361439031,0.09187491689197716,0.1473765155205546,0.08346458047692777,0.15227596443612756,0.0,0.02693236045026342
