timestamp,sample_timestamp,left_raw,right_raw
154158.1061439,154158.1061439,0.05244251722693447,0.16634860054878037
154158.1111439,154158.1111439,0.05124266622029291,0.1660491064790953
154158.1161439,154158.1161439,0.05004268940971736,0.16573799219757915
154158.1211439,154158.1211439,0.051157291678273785,0.16541517584510898
154158.1261439,154158.1261439,0.05235715631284923,0.42564950110995103
154158.1311439,154158.1311439,0.05355672596197443,0.1647331753372976
154158.13614390002,154158.13614390002,0.05475606131926507,0.1643778109431848
154158.14114390002,154158.14114390002,0.05595484336597868,0.6745268873163922
154158.14614390003,154158.14614390003,0.05715306464776887,0.16362901112598938
154158.15114390003,154158.15114390003,0.7201574381971019,0.16323754917216293
154158.15614390004,154158.15614390004,0.059547200786256034,0.16283467740297536
154158.16114390004,154158.16114390004,0.06074290168841484,0.16242062428427448
154158.16614390005,154158.16614390005,0.06193752884113444,0.16199533066107166
154158.17114390005,154158.17114390005,0.0631309534457421,0.16155875575377687
154158.17614390005,154158.17614390005,0.06432307996952652,0.1611111501092444
154158.18114390006,154158.18114390006,0.06551375122054799,0.16065225756410767
154158.18614390006,154158.18614390006,0.06670288326574615,0.16018239482462931
154158.19114390007,154158.19114390007,0.0678903324954478,0.1597014376195954
154158.19614390007,154158.19614390007,0.06907601295398662,0.1592096367456711
154158.20114390008,154158.20114390008,0.09118368746350336,0.15870696325664968
154158.20614390008,154158.20614390008,0.07144151972358778,0.24870703381951498
154158.2111439001,154158.2111439001,0.4130045998696671,0.15766869677277293
154158.2161439001,154158.2161439001,0.07379846323886488,0.15713362873960415
154158.2211439001,154158.2211439001,0.07497339394083126,0.15658759202919023
154158.2261439001,154158.2261439001,0.07614587568975988,0.1560311016792874
154158.2311439001,154158.2311439001,0.07731570080195713,0.15546383596195024
154158.2361439001,154158.2361439001,0.07848281016548672,0.15488608875936885
154158.24114390012,154158.24114390012,0.07964687853212933,0.15429717370637572
154158.24614390012,154158.24614390012,0.08080836688824725,0.1536991850639018
154158.25114390012,154158.25114390012,0.08196659461319258,0.1530901893711474
154158.25614390013,154158.25614390013,0.08312164273695416,0.152470935083931
154158.26114390013,154158.26114390013,0.08427335597566661,0.15184135872194565
154158.26614390014,154158.26614390014,0.08542159762264803,0.15120147083432317
154158.27114390014,154158.27114390014,0.08656636403109591,0.15055165572994142
154158.27614390015,154158.27614390015,0.08770740993444942,0.14989161086073724
154158.28114390015,154158.28114390015,0.08884473203785241,0.1492217023678162
154158.28614390016,154158.28614390016,0.08997815289229015,0.14854182924762432
154158.29114390016,154158.29114390016,0.09110741293760119,0.14785171510198997
154158.29614390017,154158.29614390017,0.09223284538730496,0.14715249383954024
154158.30114390017,154158.30114390017,0.09335397515878152,0.1464433627326562
154158.30614390018,154158.30614390018,0.09447077834874311,0.14572460092735431
154158.31114390018,154158.31114390018,0.691557941296005,0.1449961862800676
154158.31614390019,154158.31614390019,0.09669082773601131,0.14425820438927078
154158.3211439002,154158.3211439002,0.09779388084428965,0.14351078631358044
154158.3261439002,154158.3261439002,0.09889216668952384,0.14275404314563062
154158.3311439002,154158.3311439002,0.09998564549100082,0.17836568394776087
154158.3361439002,154158.3361439002,0.10107408249584585,0.14121303279249525
154158.3411439002,154158.3411439002,0.10215725518462064,0.1404284903298885
154158.3461439002,154158.3461439002,0.1032354019129722,0.13963523863856483
154158.35114390022,154158.35114390022,0.10430822449806008,0.13883301695149455
154158.35614390022,154158.35614390022,0.10537559109565181,0.138021867158879
154158.36114390023,154158.36114390023,0.4027425188409599,0.1372018322628587
154158.36614390023,154158.36614390023,0.10749352749965771,0.13637311935497273
154158.37114390024,154158.37114390024,0.10854395547958919,0.1355357953391783
154158.37614390024,154158.37614390024,0.10958842395229322,0.1346897664237056
154158.38114390025,154158.38114390025,0.11062712133690987,0.13383553515957322
154158.38614390025,154158.38614390025,0.11165965872906221,0.13297278202709512
154158.39114390025,154158.39114390025,0.11268568554019114,0.1321012796625116
154158.39614390026,154158.39614390026,0.11370613906656818,0.19300084880895857
154158.40114390026,154158.40114390026,0.11471987082243636,0.13033509371930094
154158.40614390027,154158.40614390027,0.11572715508390868,0.3736148957891815
154158.41114390027,154158.41114390027,0.11672778514629276,0.12853627536857004
154158.41614390028,154158.41614390028,0.11772180973469298,0.12762507278001584
154158.42114390028,154158.42114390028,0.11870903729827556,0.12670607892230126
154158.4261439003,154158.4261439003,0.11968944640192468,0.1257794723097755
154158.4311439003,154158.4311439003,0.12066274043704961,0.1248451306428696
154158.4361439003,154158.4361439003,0.12162917767152565,0.12390352656577415
154158.4411439003,154158.4411439003,0.12258818107269645,0.12295425348665907
154158.4461439003,154158.4461439003,0.123540264359903,0.12199802681992038
154158.4511439003,154158.4511439003,0.12448484014324389,0.12103444467342998
154158.45614390032,154158.45614390032,0.12542180431821823,0.7364273920089724
154158.46114390032,154158.46114390032,0.12635144229716352,0.11908596474860872
154158.46614390032,154158.46614390032,0.7147806391108071,0.11810131832911222
154158.47114390033,154158.47114390033,0.1281876169934928,0.11710995461240926
154158.47614390033,154158.47614390033,0.12909383193358454,0.11611167336753567
154158.48114390034,154158.48114390034,0.12999237473597888,0.29882240988405184
154158.48614390034,154158.48614390034,0.13088280772767943,0.11409568928358713
154158.49114390035,154158.49114390035,0.1317653132851988,0.11307811292747084
154158.49614390035,154158.49614390035,0.13263960038685266,0.11205419241126632
154158.50114390036,154158.50114390036,0.13350551433162136,0.11102398389034024
154158.50614390036,154158.50614390036,0.26465448059698127,0.10998771583796887
154158.51114390037,154158.51114390037,0.1352123232270742,0.10894544922545005
154158.51614390037,154158.51614390037,0.13605288506028718,0.10789721715931914
154158.52114390038,154158.52114390038,0.13688495298571693,0.10684327144164582
154158.52614390038,154158.52614390038,0.13770825908698625,0.1057835931717714
154158.53114390039,154158.53114390039,0.1385228139121565,0.10471835070519843
154158.5361439004,154158.5361439004,0.13932862416257716,0.10364770163396189
154158.5411439004,154158.5411439004,0.14012505832189406,0.10257142641703038
154158.5461439004,154158.5461439004,0.1409132472685241,0.10149034069810042
154158.5511439004,154158.5511439004,0.14169185802391876,0.10040382469780948
154158.5561439004,154158.5561439004,0.14246125576709354,0.1326270470234956
154158.5611439004,154158.5611439004,0.143221729709826,0.09821590955666415
154158.56614390042,154158.56614390042,0.14397252901412208,0.09711456716838453
154158.57114390042,154158.57114390042,0.14471411229861117,0.09600860600430548
154158.57614390043,154158.57614390043,0.14544604938585293,0.09489796032388878
154158.58114390043,154158.58114390043,0.1461686937471931,0.0937829449592899
154158.58614390044,154158.58614390044,0.14688168634576168,0.09266353226143588
154158.59114390044,154158.59114390044,0.25600309003625266,0.09153978859466558
154158.59614390045,154158.59614390045,0.14827847166000271,0.09041198727340094
154158.60114390045,154158.60114390045,0.14896205163243212,0.08928005295401889
154158.60614390046,154158.60614390046,0.14963579994272871,0.08814421736853412
154158.61114390046,154158.61114390046,0.1502996455446115,0.08700458984703743
154158.61614390046,154158.61614390046,0.15095340065536053,0.08586123890759664
154158.62114390047,154158.62114390047,0.15159704477935437,0.08471429644877629
154158.62614390047,154158.62614390047,0.1522302386344462,0.08356378773161595
154158.63114390048,154158.63114390048,0.1528538076824038,0.08241011936392162
154158.63614390048,154158.63614390048,0.15346679871277882,0.08125311390692933
154158.6411439005,154158.6411439005,0.15406950795512914,0.08009300210823234
154158.6461439005,154158.6461439005,0.1546615372115626,0.0789298039397777
154158.6511439005,154158.6511439005,0.15524341702517586,0.0777638017099352
154158.6561439005,154158.6561439005,0.15581467959999942,0.07659499705712547
154158.6611439005,154158.6611439005,0.15637547790702228,0.07542356068692721
154158.6661439005,154158.6661439005,0.15692546192510481,0.07424953876881397
154158.67114390052,154158.67114390052,0.1574647231472625,0.07307308656500348
154158.67614390052,154158.67614390052,0.15799340857238317,0.07189436357546802
154158.68114390053,154158.68114390053,0.1585111257477948,0.07071341670140234
154158.68614390053,154158.68614390053,0.15901799417658766,0.06953040056430686
154158.69114390053,154158.69114390053,0.15951369967472184,0.06834538960500731
154158.69614390054,154158.69614390054,0.15999925662787862,0.06715867701778043
154158.70114390054,154158.70114390054,0.16047336086476555,0.06597017240100893
154158.70614390055,154158.70614390055,0.25156380892309704,0.06478003392266432
154158.71114390055,154158.71114390055,0.1613883012869804,0.06358848063867731
154158.71614390056,154158.71614390056,0.16182918496345766,0.06239554862872627
154158.72114390056,154158.72114390056,0.16225868701918494,0.1771719531291963
154158.72614390057,154158.72614390057,0.1626769058527312,0.060006040266522676
154158.73114390057,154158.73114390057,0.8525493354627898,0.05880975835813719
154158.73614390058,154158.73614390058,0.1634799471502164,0.05761256928028344
154158.74114390058,154158.74114390058,0.1638642763519699,0.05641462043887497
154158.7461439006,154158.7461439006,0.16423760077359373,0.4006598253696286
154158.7511439006,154158.7511439006,0.16459938939016233,0.054016949389916906
154158.7561439006,154158.7561439006,0.1649496108611963,0.05281744205547249
154158.7611439006,154158.7611439006,0.1652882672802689,0.05161765153863169
154158.7661439006,154158.7661439006,0.16561547729832427,0.05041770095224061
154158.7711439006,154158.7711439006,0.16593091237529872,0.23662776933020574
154158.7761439006,154158.7761439006,0.16623511279048953,0.05198220616753178
154158.78114390062,154158.78114390062,0.34250353478825846,0.053181921286446
154158.78614390062,154158.78614390062,0.16680825017878262,0.054381319283227
154158.79114390063,154158.79114390063,0.16707679264121678,0.4048270453639892
154158.79614390063,154158.79614390063,0.16733476018372928,0.05677868455686172
154158.80114390064,154158.80114390064,0.3372255726738879,0.057976402890039684
154158.80614390064,154158.80614390064,0.1678140921962346,0.059173322135313816
154158.81114390065,154158.81114390065,0.7826366213806244,0.060369336176460744
154158.81614390065,154158.81614390065,0.1682466078661803,0.06156431349514805
154158.82114390066,154158.82114390066,0.16844504157044715,0.06275812581224327
154158.82614390066,154158.82614390066,0.16863165900209978,0.06395066518674969
154158.83114390066,154158.83114390066,0.16880642750807534,0.0651418107543396
154158.83614390067,154158.83614390067,0.16896921673665566,0.0663314290840485
154158.84114390067,154158.84114390067,0.16912011681156475,0.06751941347864016
154158.84614390068,154158.84614390068,0.16925928354613387,0.06870567288154829
154158.85114390068,154158.85114390068,0.169386479583859,0.167063225087418
154158.8561439007,154158.8561439007,0.16950162340715802,0.07107243081835622
154158.8611439007,154158.8611439007,0.1696050749442552,0.07225274533989282
154158.8661439007,154158.8661439007,0.16969625329678512,0.0734307771489083
154158.8711439007,154158.8711439007,0.16977553559782296,0.07460647908529223
154158.8761439007,154158.8761439007,0.16984275547253463,0.07577970106887708
154158.8811439007,154158.8811439007,0.16989825443084206,0.3928791224331683
154158.88614390072,154158.88614390072,0.16994165281137202,0.07811838414347008
154158.89114390072,154158.89114390072,0.16997249500404701,0.07928341776275082
154158.89614390073,154158.89614390073,0.16999239441462993,0.08044578061678163
154158.90114390073,154158.90114390073,0.16999987734781227,0.08160499891172585
154158.90614390073,154158.90614390073,0.1699951951006927,0.08276101359405041
154158.91114390074,154158.91114390074,0.16997847290746435,0.08391373917786768
154158.91614390074,154158.91614390074,0.16995003321321375,0.08506315370925935
154158.92114390075,154158.92114390075,0.1699093327225263,0.08620898479552909
154158.92614390075,154158.92614390075,0.16985608888702955,0.08735102185109153
154158.93114390076,154158.93114390076,0.16979211058210905,0.08848971208885699
154158.93614390076,154158.93614390076,0.1697155211700398,0.08962435629248204
154158.94114390077,154158.94114390077,0.1696269193361698,0.09075502372398705
154158.94614390077,154158.94614390077,0.16952653480464586,0.09188167788990358
154158.95114390078,154158.95114390078,0.8747523617334726,0.09300413537018522
154158.95614390078,154158.95614390078,0.16928898181931964,0.0941219682200146
154158.9611439008,154158.9611439008,0.1691533219906241,0.09523592755053244
154158.9661439008,154158.9661439008,0.16900513600853276,0.09634513759962073
154158.9711439008,154158.9711439008,0.3279348886759742,0.09744969412618915
154158.9761439008,154158.9761439008,0.3524988155955794,0.09854939496864928
154158.9811439008,154158.9811439008,0.16848912726909543,0.09964447791972854
154158.9861439008,154158.9861439008,0.16829327447220618,0.1007344209990431
154158.9911439008,154158.9911439008,0.16808541867239293,0.29070091042862056
154158.99614390082,154158.99614390082,0.1678664652258516,0.10289913467279227
154159.00114390082,154159.00114390082,0.1676353279894623,0.10397359337420602
154159.00614390083,154159.00614390083,0.16739226701880264,0.1050425802528728
154159.01114390083,154159.01114390083,0.5863741342988005,0.10610617783600321
154159.01614390084,154159.01614390084,0.16687132532791607,0.42842951448771915
154159.02114390084,154159.02114390084,0.16659314365825884,0.10821626946675103
154159.02614390085,154159.02614390085,0.16630334933167829,0.10926263003605059
154159.03114390085,154159.03114390085,0.16600208421642754,0.11030314586888568
154159.03614390086,154159.03614390086,0.16568928229791124,0.11133766678473547
154159.04114390086,154159.04114390086,0.16536441822722928,0.11236579073369068
154159.04614390086,154159.04614390086,0.1650286283786179,0.11338800708028444
154159.05114390087,154159.05114390087,0.16468099417022836,0.11440369878112426
154159.05614390087,154159.05614390087,0.7536872240769414,0.11541305142664976
154159.06114390088,154159.06114390088,0.6404378522480543,0.11641578568549737
154159.06614390088,154159.06614390088,0.16356967042301496,0.11741186326945618
154159.0711439009,154159.0711439009,0.1631764442582545,0.4358142963523055
154159.0761439009,154159.0761439009,0.162771822230752,0.11938369554645928
154159.0811439009,154159.0811439009,0.16235614424183822,0.12035936509715951
154159.0861439009,154159.0861439009,0.1619290661870318,0.12132789727388305
154159.0911439009,154159.0911439009,0.16149083640695397,0.12228932234797632
154159.0961439009,154159.0961439009,0.16104150192272937,0.12324354836372081
154159.10114390092,154159.10114390092,0.16058096161828542,0.12419038288927894
154159.10614390092,154159.10614390092,0.1601090299256722,0.12512956926552762
154159.11114390093,154159.11114390093,0.8423849016327694,0.12606183835984988
154159.11614390093,154159.11614390093,0.1591333537465382,0.12698611123011933
154159.12114390093,154159.12114390093,0.5660962606815434,0.12790270551785746
154159.12614390094,154159.12614390094,0.15811345611810998,0.12881146316127057
154159.13114390094,154159.13114390094,0.47911798305083847,0.34615161785892595
154159.13614390095,154159.13614390095,0.157050570663645,0.13060547686804966
154159.14114390095,154159.14114390095,0.4851834995592716,0.13149016598159785
154159.14614390096,154159.14614390096,0.15594489681933452,0.13236727723605096
154159.15114390096,154159.15114390096,0.15537599540750413,0.13323575406035162
154159.15614390097,154159.15614390097,0.15479649840818718,0.1340958584956879
154159.16114390097,154159.16114390097,0.15420687226195215,0.13494783607426963
154159.16614390098,154159.16614390098,0.15360661348926768,0.13579114834123507
154159.17114390098,154159.17114390098,0.15299592993857894,0.13662582759983946
154159.176143901,154159.176143901,0.15237512513733595,0.1574637680452893
154159.181143901,154159.181143901,0.151743947520344,0.13826930222612718
154159.186143901,154159.186143901,0.15110252764632573,0.1390777224223526
154159.191143901,154159.191143901,0.1504508956327973,0.13987714099027873
154159.196143901,154159.196143901,0.14978967718627342,0.14066798355527207
154159.201143901,154159.201143901,0.1491180521048179,0.4016323878349129
154159.206143901,154159.206143901,0.14843685617324368,0.14222193021569063
154159.21114390102,154159.21114390102,0.1477455764369722,0.14298504282606608
154159.21614390102,154159.21614390102,0.14704457163817605,0.14373890309526077
154159.22114390103,154159.22114390103,0.14633388319771176,0.14448340947094418
154159.22614390103,154159.22614390103,0.1456135734664405,0.14521847986879896
154159.23114390104,154159.23114390104,0.1448837153336657,0.1459440416521547
154159.23614390104,154159.23614390104,0.1441443273828763,0.19116387427639925
154159.24114390105,154159.24114390105,0.3309610824122773,0.1473659562641464
154159.24614390105,154159.24614390105,0.14263743201270482,0.14806280249745885
154159.25114390106,154159.25114390106,0.14187001887894013,0.1487495116288993
154159.25614390106,154159.25614390106,0.14109326645804696,0.1494261791942169
154159.26114390107,154159.26114390107,0.14030753386656147,0.150093041339622
154159.26614390107,154159.26614390107,0.13951302096791462,0.15075017476852653
154159.27114390107,154159.27114390107,0.1387092532976223,0.15139689366502762
154159.27614390108,154159.27614390108,0.1378965847185613,0.1520334351549303
154159.28114390108,154159.28114390108,0.1370754398624793,0.5438392783096427
154159.2861439011,154159.2861439011,0.1362454359037,0.1532763993865177
154159.2911439011,154159.2911439011,0.13540652306749815,0.15388198999914332
154159.2961439011,154159.2961439011,0.13455951487444862,0.15447773212196794
154159.3011439011,154159.3011439011,0.13370380809122887,0.15506273022653408
154159.3061439011,154159.3061439011,0.13283975493570055,0.15563725095810585
154159.3111439011,154159.3111439011,0.13196756308668425,0.15620139526028198
154159.31614390112,154159.31614390112,0.13108696455761093,0.15675464824978902
154159.32114390112,154159.32114390112,0.1301982953921178,0.49686736654848285
154159.32614390113,154159.32614390113,0.41278557651540965,0.15782906370255964
154159.33114390113,154159.33114390113,0.12839720200834018,0.15835057139454833
154159.33614390114,154159.33614390114,0.7368787628845237,0.15886080225588217
154159.34114390114,154159.34114390114,0.12656428864933783,0.1593598820657458
154159.34614390114,154159.34614390114,0.12563669412371947,0.1598487164224284
154159.35114390115,154159.35114390115,0.12470136471189475,0.16032632392763674
154159.35614390115,154159.35614390115,0.12375853122812437,0.16079285023791576
154159.36114390116,154159.36114390116,0.12280824690655111,0.16124818402450433
154159.36614390116,154159.36614390116,0.12185082305685557,0.16169260919865244
154159.37114390117,154159.37114390117,0.12088610802110539,0.16212570174300064
154159.37614390117,154159.37614390117,0.11991433407916174,0.16254762857268365
154159.38114390118,154159.38114390118,0.11893544809044271,0.16295810329759144
154159.38614390118,154159.38614390118,0.1179498942327348,0.16335765199070065
154159.3911439012,154159.3911439012,0.4689401738957963,0.1637453109563523
154159.3961439012,154159.3961439012,0.11595821669021124,0.16412223213742136
154159.4011439012,154159.4011439012,0.11495247739396655,0.6217408481699086
154159.4061439012,154159.4061439012,0.4923647301789917,0.16484142879839234
154159.4111439012,154159.4111439012,0.1129216022942353,0.16518362231063896
154159.4161439012,154159.4161439012,0.11189662507253498,0.1655143321220012
154159.4211439012,154159.4211439012,0.11086552646360381,0.4365068098723758
154159.42614390122,154159.42614390122,0.10982838283017099,0.16614139966084773
154159.43114390122,154159.43114390122,0.10878517263200363,0.1664374084020594
154159.43614390123,154159.43614390123,0.10773610676246137,0.16672181830168412
154159.44114390123,154159.44114390123,0.10668117496103328,0.1669943650210553
154159.44614390124,154159.44614390124,0.10562073394152954,0.16725554109428842
154159.45114390124,154159.45114390124,0.12474300587070179,0.1675049131362116
154159.45614390125,154159.45614390125,0.1034831290601537,0.16774239445008635
154159.46114390125,154159.46114390125,0.19918780563203875,0.16796795093970424
154159.46614390126,154159.46614390126,0.10132413320894441,0.16818215628148347
154159.47114390126,154159.47114390126,0.10023681254601557,0.16838415536006832
154159.47614390127,154159.47614390127,0.09914456679860323,0.16857454605257938
154159.48114390127,154159.48114390127,0.09804740293582315,0.16875307399722253
154159.48614390127,154159.48614390127,0.09694541239551403,0.16891967401287464
154159.49114390128,154159.49114390128,0.0958386755995837,0.169074248295348
154159.49614390128,154159.49614390128,0.0947274685677756,0.1692172109429393
154159.5011439013,154159.5011439013,0.09361170365919157,0.3612624982261017
154159.5061439013,154159.5061439013,0.09249146224839104,0.16946658225125905
154159.5111439013,154159.5111439013,0.09136725883082264,0.1695740001802162
154159.5161439013,154159.5161439013,0.09023878073374965,0.2892432242642154
154159.5211439013,154159.5211439013,0.08910621495354583,0.16975198886259427
154159.5261439013,154159.5261439013,0.08796983987108724,0.16982323831153046
154159.53114390132,154159.53114390132,0.08682962423264272,0.1698823738935881
154159.53614390132,154159.53614390132,0.08568570225420215,0.16992944409089789
154159.54114390133,154159.54114390133,0.08453815267954104,0.16996431325566708
154159.54614390133,154159.54614390133,0.08338727973547277,0.3530901321069608
154159.55114390134,154159.55114390134,0.08223300158334276,0.16999872815543812
154159.55614390134,154159.55614390134,0.08107552970004524,0.1699979301401001
154159.56114390134,154159.56114390134,0.07991493624988245,0.16998508226478115
154159.56614390135,154159.56614390135,0.07875134792980026,0.16996022296006522
154159.57114390135,154159.57114390135,0.7108486864439303,0.1699233966588561
154159.57614390136,154159.57614390136,0.07641566210490147,0.169874519324981
154159.58114390136,154159.58114390136,0.07524380588164113,0.16981372007939305
154159.58614390137,154159.58614390137,0.07406938087770157,0.16974072283084493
154159.59114390137,154159.59114390137,0.07289262004689244,0.18486668132015113
154159.59614390138,154159.59614390138,0.07171352758785884,0.1695593084605604
154159.60114390138,154159.60114390138,0.07053224809105309,0.16945046034218914
154159.6061439014,154159.6061439014,0.06934896756719239,0.16932997343576667
154159.6111439014,154159.6111439014,0.06816371661109119,0.16919734283260102
154159.6161439014,154159.6161439014,0.06697664658810891,0.1690527685687665
154159.6211439014,154159.6211439014,0.06578784491496417,0.1688960247490565
154159.6261439014,154159.6261439014,0.06459755054622127,0.16872803865650263
154159.6311439014,154159.6311439014,0.06340575382452845,0.16854785931790944
154159.6361439014,154159.6361439014,0.062212608997599665,0.16835575394151853
154159.64114390142,154159.64114390142,0.061018262025832194,0.16815200287475074
154159.64614390142,154159.64614390142,0.05982279517137171,0.16793624933053206
154159.65114390143,154159.65114390143,0.05862634924052148,0.16770872787386548
154159.65614390143,154159.65614390143,0.05742902264130257,0.16746914661968976
154159.66114390144,154159.66114390144,0.05623099700287564,0.16721849818786097
154159.66614390144,154159.66614390144,0.055032326253730224,0.16695579108132183
154159.67114390145,154159.67114390145,0.05383314189778742,0.16668108185077954
154159.67614390145,154159.67614390145,0.05263359327851749,0.4697084778736118
154159.68114390146,154159.68114390146,0.051433773075279375,0.16609766052971922
154159.68614390146,154159.68614390146,0.05035430687351817,0.16578806518540082
154159.69114390147,154159.69114390147,0.05096618187597572,0.16546742260679723
154159.69614390147,154159.69614390147,0.052166072780169666,0.16513487480977487
154159.70114390148,154159.70114390148,0.05336574695082521,0.16479086711174623
154159.70614390148,154159.70614390148,0.05456508997189278,0.1644355394779625
154159.71114390148,154159.71114390148,0.05576396813366289,0.16406855210324156
154159.7161439015,154159.7161439015,0.05696227494082117,0.16369026988174618
154159.7211439015,154159.7211439015,0.058159859003383566,0.16330024845288094
154159.7261439015,154159.7261439015,0.05935667652030488,0.1628995813834256
154159.7311439015,154159.7311439015,0.06055254378059474,0.5402206875650062
154159.7361439015,154159.7361439015,0.06174730967829852,0.16206349492898614
154159.7411439015,154159.7411439015,0.06294096629084844,0.16162902354166883
154159.74614390152,154159.74614390152,0.06413329446604696,0.2678635139750146
154159.75114390152,154159.75114390152,0.06532419487102363,0.16072590798750352
154159.75614390153,154159.75614390153,0.06651360367051704,0.16025795859929426
154159.76114390153,154159.76114390153,0.06770133800602134,0.5591089028712779
154159.76614390154,154159.76614390154,0.06888730789459332,0.15928874115683467
154159.77114390154,154159.77114390154,0.07007136986887419,0.5058336939262904
154159.77614390154,154159.77614390154,0.07125345398606485,0.15827579086196353
154159.78114390155,154159.78114390155,0.177236622292973,0.1577530421141883
154159.78614390155,154159.78614390155,0.07361104140992793,0.15721927178999706
154159.79114390156,154159.79114390156,0.0747864531883271,0.15667535889295434
154159.79614390156,154159.79614390156,0.0759593115865855,0.15612043968594402
154159.80114390157,154159.80114390157,0.0771295042685634,0.41621359375637323
154159.80614390157,154159.80614390157,0.07829712883422565,0.15497884700105427
154159.81114390158,154159.81114390158,0.07946187977174736,0.15515257183960118
154159.81614390158,154159.81614390158,0.8051378911114407,0.2124888727223881
154159.8211439016,154159.8211439016,0.08178231554761621,0.1531877930292563
154159.8261439016,154159.8261439016,0.08293789116543052,0.1525702129833216
154159.8311439016,154159.8311439016,0.08409012912529165,0.15194223503342927
154159.8361439016,154159.8361439016,0.08523888129741929,0.37401921586026776
154159.8411439016,154159.8411439016,0.08638428397427433,0.15065582183437734
154159.8461439016,154159.8461439016,0.08752595080573322,0.1499974561483448
154159.85114390161,154159.85114390161,0.08866369291250646,0.14932864955008573
154159.85614390162,154159.85614390162,0.1972477758660912,0.14865061533206644
154159.86114390162,154159.86114390162,0.39947218370650495,0.1479626688360081
154159.86614390163,154159.86614390163,0.09205394588922748,0.147264654218354
154159.87114390163,154159.87114390163,0.09317572605245464,0.1465569957383293
154159.87614390164,154159.87614390164,0.0942932187893003,0.14583974659017485
154159.88114390164,154159.88114390164,0.09540624639755357,0.14511283368825642
154159.88614390165,154159.88614390165,0.09651474410582624,0.1443764311620652
154159.89114390165,154159.89114390165,0.09761853810905623,0.14363048710387477
154159.89614390166,154159.89614390166,0.09871761626647757,0.14287527271999534
154159.90114390166,154159.90114390166,0.09981174886043027,0.14211063296770343
154159.90614390167,154159.90614390167,0.10090100208149322,0.14133697448676052
154159.91114390167,154159.91114390167,0.10198520077860926,0.14055424011558557
154159.91614390168,154159.91614390168,0.10306396770878934,0.1397620497468472
154159.92114390168,154159.92114390168,0.10413772537853462,0.138961385123931
154159.92614390168,154159.92614390168,0.1052059758584583,0.13815166428153447
154159.9311439017,154159.9311439017,0.10626864264002538,0.1373330266895989
154159.9361439017,154159.9361439017,0.10732571333236128,0.13650570444110302
154159.9411439017,154159.9411439017,0.10837704666925806,0.1356697241576979
154159.9461439017,154159.9461439017,0.1094224618893933,0.6526444111170773
154159.9511439017,154159.9511439017,0.11046215339986334,0.1339722276804161
154159.9561439017,154159.9561439017,0.11149564635297066,0.1331107794853252
154159.96114390172,154159.96114390172,0.11252300112917477,0.13224103620213912
154159.96614390172,154159.96614390172,0.11354398085335904,0.131362912443296
154159.97114390173,154159.97114390173,0.11455882868024733,0.13047693716979739
154159.97614390173,154159.97614390173,0.6341909074010024,0.12958277829884932
154159.98114390174,154159.98114390174,0.11656883457699964,0.12868065409055965
154159.98614390174,154159.98614390174,0.11756390512827097,0.12777066932598813
154159.99114390175,154159.99114390175,0.11855228126636876,0.1268529778066265
154159.99614390175,154159.99614390175,0.11953370687161147,0.1259274940570914
154160.00114390175,154160.00114390175,0.12050794799539163,0.1249941733389976
154160.00614390176,154160.00614390176,0.12147575002788369,0.12405400426374628
154160.01114390176,154160.01114390176,0.12243603807763621,0.1231060408424616
154160.01614390177,154160.01614390177,0.12338908189430993,0.12215076774665434
154160.02114390177,154160.02114390177,0.12433490191321474,0.12118839108882107
154160.02614390178,154160.02614390178,0.12527311548123196,0.120218730380126
154160.03114390178,154160.03114390178,0.1262039345031479,0.11924217259259669
154160.0361439018,154160.0361439018,0.1271269792910839,0.431484905388155
154160.0411439018,154160.0411439018,0.12804253707007657,0.11726830605769269
154160.0461439018,154160.0461439018,0.12895021071573592,0.11627126072391927
154160.0511439018,154160.0511439018,0.12984991625317083,0.11526752687677475
154160.0561439018,154160.0561439018,0.130741598273901,0.21348077725729414
154160.0611439018,154160.0611439018,0.13162525026893165,0.11324055927628668
154160.06614390181,154160.06614390181,0.13250069230374734,0.11221752308432374
154160.07114390182,154160.07114390182,0.13336815838851312,0.11118846911493141
154160.07614390182,154160.07614390182,0.13422713443892054,0.11015317925725601
154160.08114390183,154160.08114390183,0.13507763086676644,0.10911183300249798
154160.08614390183,154160.08614390183,0.13591958322520678,0.10806455159277015
154160.09114390184,154160.09114390184,0.13675307958240346,0.1070115551214483
154160.09614390184,154160.09614390184,0.13757765836641972,0.10595269964472123
154160.10114390185,154160.10114390185,0.13839376352404545,0.10488843118156779
154160.10614390185,154160.10614390185,0.13920086991302114,0.10381857296272215
154160.11114390186,154160.11114390186,0.18829231678890698,0.1027433879064623
154160.11614390186,154160.11614390186,0.14078807906099702,0.10166272919133018
154160.12114390187,154160.12114390187,0.14156845621214142,0.10057720438695565
154160.12614390187,154160.12614390187,0.2663246348071592,0.09948647581835768
154160.13114390188,154160.13114390188,0.14310123584553364,0.09839084451582443
154160.13614390188,154160.13614390188,0.2908087961719895,0.09729031098614349
154160.14114390188,154160.14114390188,0.1445967223812522,0.09618509996972274
154160.1461439019,154160.1461439019,0.14533024319635265,0.09507521182173173
154160.1511439019,154160.1511439019,0.14605434265427866,0.0939608694625439
154160.1561439019,154160.1561439019,0.14676879545789911,0.09284211195383252
154160.1611439019,154160.1611439019,0.14747359318713826,0.09171907957520302
154160.1661439019,154160.1661439019,0.14816832017513398,0.09059174049053798
154160.1711439019,154160.1711439019,0.14885384001183877,0.08946059569732909
154160.17614390192,154160.17614390192,0.14952912127330467,0.0883253595376851
154160.18114390192,154160.18114390192,0.15019452097556954,0.08718631871071246
154160.18614390193,154160.18614390193,0.15084988612514827,0.0860435532174734
154160.19114390193,154160.19114390193,0.15149515349536785,0.08489717920599645
154160.19614390194,154160.19614390194,0.1521302880642267,0.08374732084010902
154160.20114390194,154160.20114390194,0.15275480433339106,0.32254452674167977
154160.20614390195,154160.20614390195,0.1533698432374719,0.08143759097186572
154160.21114390195,154160.21114390195,0.15397420608362944,0.0802779699545505
154160.21614390195,154160.21614390195,0.15456803716136575,0.07911528241966477
154160.22114390196,154160.22114390196,0.15515150743716277,0.07794971018368779
154160.22614390196,154160.22614390196,0.15572447754554167,0.07678134636980255
154160.23114390197,154160.23114390197,0.1562867997375717,0.0756102854256932
154160.23614390197,154160.23614390197,0.15683859554010224,0.0744366875576556
154160.24114390198,154160.24114390198,0.15737961583183294,0.07326062473330536
154160.24614390198,154160.24614390198,0.15790989115598802,0.07208223491632357
154160.251143902,154160.251143902,0.1584291017393147,0.07090158424283774
154160.256143902,154160.256143902,0.1589380877556215,0.06971896411315578
154160.261143902,154160.261143902,0.1594358280994275,0.06853430434668088
154160.266143902,154160.266143902,0.15992236312582675,0.06734775115492637
154160.271143902,154160.271143902,0.16039851515223344,0.06615955847814728
154160.276143902,154160.276143902,0.16086324886052925,0.06496969239834027
154160.28114390202,154160.28114390202,0.1613168937440364,0.06377833075219184
154160.28614390202,154160.28614390202,0.16175963131006402,0.06258561778923889
154160.29114390202,154160.29114390202,0.1621909368845562,0.06139161709814009
154160.29614390203,154160.29614390203,0.1626113488322174,0.06019650898557737
154160.30114390203,154160.30114390203,0.16302025448827237,0.059000356977085895
154160.30614390204,154160.30614390204,0.16341782862268192,0.05780330357916202
154160.31114390204,154160.31114390204,0.16380395536266104,0.05660546472855133
154160.31614390205,154160.31614390205,0.164178930297242,0.05540697974387288
154160.32114390205,154160.32114390205,0.3728745437399672,0.05420795123656692
154160.32614390206,154160.32614390206,0.27413998411850893,0.05300850215154672
154160.33114390206,154160.33114390206,0.16523512734916027,0.4094213521597889
154160.33614390207,154160.33614390207,0.16556408283544974,0.05060881663483691
154160.34114390207,154160.34114390207,0.16588153921288668,0.05059117664047359
154160.34614390208,154160.34614390208,0.3995822818841315,0.051791111555931836
154160.35114390208,154160.35114390208,0.166481621054871,0.05299086480285526
154160.35614390209,154160.35614390209,0.16676428194827161,0.05419032207347123
154160.3611439021,154160.3611439021,0.16703535101218253,0.05538936537406752
154160.3661439021,154160.3661439021,0.16729438560928855,0.45094926413600295
154160.3711439021,154160.3711439021,0.16754185292445917,0.057785689890333995
154160.3761439021,154160.3761439021,0.4075000337471576,0.05898276069967699
154160.3811439021,154160.3811439021,0.16800170018839358,0.060178922294046755
154160.3861439021,154160.3861439021,0.1682135744438243,0.06137403863418443
154160.39114390212,154160.39114390212,0.8243725145026177,0.06256808264340911
154160.39614390212,154160.39614390212,0.5156849922866025,0.06376082452737027
154160.40114390213,154160.40114390213,0.16877907145207294,0.5578488006952015
154160.40614390213,154160.40614390213,0.16894409975450864,0.06614207269178142
154160.41114390214,154160.41114390214,0.5150185782506004,0.06733031876224678
154160.41614390214,154160.41614390214,0.16923762239163426,0.06851681931851668
154160.42114390215,154160.42114390215,0.16936704313440837,0.06970155859064986
154160.42614390215,154160.42614390215,0.1694841935601958,0.07088427680632405
154160.43114390215,154160.43114390215,0.16958926469155447,0.5794022920239011
154160.43614390216,154160.43614390216,0.16968262928307393,0.07324333060036425
154160.44114390216,154160.44114390216,0.16976375758754397,0.07441940204118093
154160.44614390217,154160.44614390217,0.16983299294803303,0.0755930475315367
154160.45114390217,154160.45114390217,0.16989025820721212,0.11846518484782742
154160.45614390218,154160.45614390218,0.1699355437764646,0.07793255045151118
154160.46114390218,154160.46114390218,0.16996874916998297,0.07909815059007015
154160.4661439022,154160.4661439022,0.16998968347594798,0.08026076998065304
154160.4711439022,154160.4711439022,0.16999948843467047,0.08142058425447651
154160.4761439022,154160.4761439022,0.16999665994279364,0.08257709430261391
154160.4811439022,154160.4811439022,0.16998207182994104,0.08373041179718595
154160.4861439022,154160.4861439022,0.16995538558821177,0.08488032936796819
154160.4911439022,154160.4911439022,0.1699166781488936,0.08602675158374017
154160.49614390222,154160.49614390222,0.1698660075822155,0.08716957992968119
154160.50114390222,154160.50114390222,0.16980316359443845,0.08830863169781415
154160.50614390222,154160.50614390222,0.1697285719515676,0.0894439262885391
154160.51114390223,154160.51114390223,0.16964203037566347,0.09057528557556599
154160.51614390223,154160.51614390223,0.3271510968661863,0.09170234987323492
154160.52114390224,154160.52114390224,0.16943283759767308,0.09282564241443242
154160.52614390224,154160.52614390224,0.16931037911034366,0.6007723875770855
154160.53114390225,154160.53114390225,0.5926468397108029,0.09505885236111121
154160.53614390225,154160.53614390225,0.16902948962331113,0.09616876913148212
154160.54114390226,154160.54114390226,0.16887105031190755,0.0972739925444179
154160.54614390226,154160.54614390226,0.16870112811267837,0.09837464910603527
154160.55114390227,154160.55114390227,0.16851875691859736,0.2809866106956639
154160.55614390227,154160.55614390227,0.46054915299380583,0.47120176666083535
154160.56114390228,154160.56114390228,0.39251441193375386,0.10164689587016057
154160.56614390228,154160.56614390228,0.16790198321107308,0.3441626178224825
154160.57114390229,154160.57114390229,0.16767290622599562,0.10380281810092074
154160.5761439023,154160.5761439023,0.16743185568128355,0.10487273643755113
154160.5811439023,154160.5811439023,0.16717901973031665,0.10593714729005378
154160.5861439023,154160.5861439023,0.16691426970229523,0.10699586817732581
154160.5911439023,154160.5911439023,0.16663834171815095,0.1080491400897424
154160.5961439023,154160.5961439023,0.166350285519126,0.10909637686100478
154160.6011439023,154160.6011439023,0.1660505294398716,0.11013766712963148
154160.60614390232,154160.60614390232,0.1657398130012281,0.1111732781064815
154160.61114390232,154160.61114390232,0.1654171181511515,0.1848290672683502
154160.61614390233,154160.61614390233,0.16508287772355437,0.11322562408806848
154160.62114390233,154160.62114390233,0.16473714083355326,0.1142423697883739
154160.62614390234,154160.62614390234,0.1643798854776291,0.2926594180768449
154160.63114390234,154160.63114390234,0.16401123823696276,0.11625646173540943
154160.63614390235,154160.63614390235,0.1636312187057296,0.11725364900835598
154160.64114390235,154160.64114390235,0.1632399719039999,0.11824419374476107
154160.64614390236,154160.64614390236,0.16283722992034913,0.11922781242043008
154160.65114390236,154160.65114390236,0.16242239191707206,0.12020399995141161
154160.65614390236,154160.65614390236,0.16199787568881463,0.12117414466616526
154160.66114390237,154160.66114390237,0.1615612797522703,0.12213661860811721
154160.66614390237,154160.66614390237,0.1611138159101935,0.8119968783072121
154160.67114390238,154160.67114390238,0.16065515712857126,0.12404015037477012
154160.67614390238,154160.67614390238,0.1601852478888928,0.12498070703617159
154160.6811439024,154160.6811439024,0.15970454108160556,0.12591391589970774
154160.6861439024,154160.6861439024,0.1592127168017231,0.1268394321604893
154160.6911439024,154160.6911439024,0.47107679736305585,0.1277571846563146
154160.6961439024,154160.6961439024,0.15819635452030292,0.12866731820259822
154160.7011439024,154160.7011439024,0.15767169353111293,0.4775606893733433
154160.7061439024,154160.7061439024,0.15713677096957085,0.1304637757780115
154160.71114390242,154160.71114390242,0.15659091181756016,0.39228468657208243
154160.71614390242,154160.71614390242,0.15603436444513924,0.13222807047487095
154160.72114390242,154160.72114390242,0.15546736709961667,0.13309803754270585
154160.72614390243,154160.72614390243,0.8062395376079997,0.13395956895313604
154160.73114390243,154160.73114390243,0.15430150373101267,0.13481273268909005
154160.73614390244,154160.73614390244,0.15370258256957725,0.13565714077865423
154160.74114390244,154160.74114390244,0.15309395585626334,0.13649353253654414
154160.74614390245,154160.74614390245,0.15247464154526844,0.13732096148313816
154160.75114390245,154160.75114390245,0.15184490371545295,0.4891405929424393
154160.75614390246,154160.75614390246,0.15120536544640673,0.13894956695495073
154160.76114390246,154160.76114390246,0.15055563430399913,0.139750673661508
154160.76614390247,154160.76614390247,0.14989537132177486,0.140542375825217
154160.77114390247,154160.77114390247,0.43064218756036154,0.14132559698147332
154160.77614390248,154160.77614390248,0.14854593727927998,0.14209943797925606
154160.78114390248,154160.78114390248,0.1478564101732355,0.14286420308203704
154160.7861439025,154160.7861439025,0.3019839687964662,0.14361946401339687
154160.7911439025,154160.7911439025,0.14644779455387394,0.631332945206585
154160.7961439025,154160.7961439025,0.14572895142601175,0.1451020597717098
154160.8011439025,154160.8011439025,0.14500025047641926,0.14582878002882513
154160.8061439025,154160.8061439025,0.14426263358769512,0.14654650438229766
154160.8111439025,154160.8111439025,0.1435154674941148,0.14725445471009915
154160.8161439025,154160.8161439025,0.1427586545726269,0.14795237134911352
154160.82114390252,154160.82114390252,0.1419926000479351,0.14864052537359196
154160.82614390252,154160.82614390252,0.14121771669489874,0.1493192141446135
154160.83114390253,154160.83114390253,0.14043345408435112,0.1499876941321823
154160.83614390253,154160.83614390253,0.13964010125885573,0.15064612203809524
154160.84114390254,154160.84114390254,0.13883797083922061,0.15129469604052787
154160.84614390254,154160.84614390254,0.7146133203453529,0.15193293864403118
154160.85114390255,154160.85114390255,0.3007946594308196,0.15256070271791025
154160.85614390255,154160.85614390255,0.1363781944951607,0.5263579838399127
154160.86114390256,154160.86114390256,0.13554075013543948,0.15378628800352276
154160.86614390256,154160.86614390256,0.13469491799020522,0.1543834692207063
154160.87114390256,154160.87114390256,0.1338406406953997,0.15497024471940718
154160.87614390257,154160.87614390257,0.1329779639815792,0.15554650491118543
154160.88114390257,154160.88114390257,0.33537906950887386,0.15611224523917686
154160.88614390258,154160.88614390258,0.13122782787514675,0.15666733929239313
154160.89114390258,154160.89114390258,0.1303403871971733,0.1572115940138731
154160.8961439026,154160.8961439026,0.12944500443063747,0.6339896071004842
154160.9011439026,154160.9011439026,0.12854135359362065,0.5143528474912816
154160.9061439026,154160.9061439026,0.12763044700724102,0.158780109613998
154160.9111439026,154160.9111439026,0.46714744438667033,0.15928136385678432
154160.9161439026,154160.9161439026,0.12578498805470503,0.1597716700876356
154160.9211439026,154160.9211439026,0.24878388146006558,0.16025104369455
154160.92614390262,154160.92614390262,0.12390915016041908,0.16071923298623064
154160.93114390262,154160.93114390262,0.1229601483890596,0.16117650730688546
154160.93614390263,154160.93614390263,0.12200351477543196,0.16162214657171098
154160.94114390263,154160.94114390263,0.12104021757197998,0.1620574546218802
154160.94614390263,154160.94614390263,0.12006957203970854,0.23933979689169704
154160.95114390264,154160.95114390264,0.11909161525497271,0.1628931593950309
154160.95614390264,154160.95614390264,0.1181073374506737,0.16329481085517247
154160.96114390265,154160.96114390265,0.33178234549519686,0.6174535491808482
154160.96614390265,154160.96614390265,0.35150838390529326,0.16406298627110835
154160.97114390266,154160.97114390266,0.11511313512073973,0.1644301600756228
154160.97614390266,154160.97614390266,0.1141019540727415,0.7152678251535581
154160.98114390267,154160.98114390267,0.11308431299719297,0.16512997125192602
154160.98614390267,154160.98614390267,0.11206031304599712,0.16546248639124822
154160.99114390268,154160.99114390268,0.11103023074856248,0.16578368429925328
154160.99614390268,154160.99614390268,0.10999394967517118,0.1660931237534589
154161.0011439027,154161.0011439027,0.10895150078427175,0.6676026308308101
154161.0061439027,154161.0061439027,0.1079035440078691,0.16667723888952374
154161.0111439027,154161.0111439027,0.10684961535554796,0.1669518330413032
154161.0161439027,154161.0161439027,0.10578998578704218,0.16721469871274264
154161.0211439027,154161.0211439027,0.10472479714967971,0.16746588410786112
154161.0261439027,154161.0261439027,0.3221322634554519,0.16770538663737677
154161.0311439027,154161.0311439027,0.1025781561242676,0.16793309852608634
154161.03614390272,154161.03614390272,0.101496832277073,0.16814888772500558
154161.04114390272,154161.04114390272,0.1004103156421323,0.16835275718890091
154161.04614390273,154161.04614390273,0.09931885965312409,0.16854502757740145
154161.05114390273,154161.05114390273,0.09822238718837602,0.16872523818172935
154161.05614390274,154161.05614390274,0.09712125259577,0.16889397251814675
154161.06114390274,154161.06114390274,0.096015329745358,0.16905063368608783
154161.06614390275,154161.06614390275,0.09490477393177708,0.16919530961908583
154161.07114390275,154161.07114390275,0.0937897363993847,0.16932808894410029
154161.07614390276,154161.07614390276,0.09267031239892641,0.20865841793263198
154161.08114390276,154161.08114390276,0.09154660273360044,0.1695577423146853
154161.08614390276,154161.08614390276,0.09041873222297771,0.16965459160899285
154161.09114390277,154161.09114390277,0.08928685498787216,0.16973957684842067
154161.09614390277,154161.09614390277,0.08815105911618264,0.1698126210117231
154161.10114390278,154161.10114390278,0.08701127826940015,0.16987313642031576
154161.10614390278,154161.10614390278,0.08586813912237208,0.16992277787489402
154161.1111439028,154161.1111439028,0.08472121489262348,0.16995978336212422
154161.1161439028,154161.1161439028,0.08357083356469273,0.22756758120138454
154161.1211439028,154161.1211439028,0.08241702710633582,0.6051427472106803
154161.1261439028,154161.1261439028,0.08126009421713133,0.16999889331343662
154161.1311439028,154161.1311439028,0.08009998572460895,0.16998794838655992
154161.1361439028,154161.1361439028,0.07893686391357231,0.1699649919482535
154161.14114390282,154161.14114390282,0.07777079940755614,0.1699298262995611
154161.14614390282,154161.14614390282,0.07660204366428153,0.16988303622608864
154161.15114390283,154161.15114390283,0.07543050411578942,0.459714245655623
154161.15614390283,154161.15614390283,0.07425658159486317,0.1697531099654768
154161.16114390283,154161.16114390283,0.07308017950498875,0.16967031092610824
154161.16614390284,154161.16614390284,0.07190144783356656,0.4803080760684737
154161.17114390284,154161.17114390284,0.07072054543300144,0.16946871364941465
154161.17614390285,154161.17614390285,0.20914802632730095,0.16934982526411813
154161.18114390285,154161.18114390285,0.06835258007957248,0.16921906793623565
154161.18614390286,154161.18614390286,0.06716580013484955,0.16907643723635188
154161.19114390286,154161.19114390286,0.06597729112838566,0.16892180787381206
154161.19614390287,154161.19614390287,0.06478723174210489,0.16875565014379848
154161.20114390287,154161.20114390287,0.06359562318927355,0.16857704541202181
154161.20614390288,154161.20614390288,0.0624027127135146,0.16838707338336117
154161.21114390288,154161.21114390288,0.06120854041747907,0.1681850723668984
154161.2161439029,154161.2161439029,0.06001324401570016,0.16797120714590577
154161.2211439029,154161.2211439029,0.05881696608143309,0.16774580644086018
154161.2261439029,154161.2261439029,0.05761978932859368,0.16750842360908758
154161.2311439029,154161.2311439029,0.05642185594431015,0.16725938403992155
154161.2361439029,154161.2361439029,0.05522326901893615,0.16699840619345457
154161.2411439029,154161.2411439029,0.05402416557778224,0.6043475409760892
154161.2461439029,154161.2461439029,0.05282466403573585,0.1664417244242256
154161.25114390292,154161.25114390292,0.05162486795265302,0.16614530967654198
154161.25614390292,154161.25614390292,0.3353075432813282,0.1658382462251828
154161.26114390293,154161.26114390293,0.050775068267493055,0.16551922382327802
154161.26614390293,154161.26614390293,0.05197497987653713,0.16518841055052716
154161.27114390294,154161.27114390294,0.05317470054985258,0.1648464345115677
154161.27614390294,154161.27614390294,0.054374101736578175,0.1644928421808375
154161.28114390295,154161.28114390295,0.0555730680125392,0.1641278399506649
154161.28614390295,154161.28614390295,0.05677145451988522,0.16375102082223159
154161.29114390296,154161.29114390296,0.05796919760587322,0.16336340753248524
154161.29614390296,154161.29614390296,0.059166132189653525,0.1629642477087483
154161.30114390297,154161.30114390297,0.060362138624873884,0.16255365908712152
154161.30614390297,154161.30614390297,0.06155713179439479,0.16213205500359376
154161.31114390297,154161.31114390297,0.06275093454099435,0.16169890691006344
154161.31614390298,154161.31614390298,0.06394344745675541,0.1612545079192073
154161.32114390298,154161.32114390298,0.06513466031343877,0.16079971080948974
154161.326143903,154161.326143903,0.06632428615938171,0.1603332685552263
154161.331143903,154161.331143903,0.5480498042915112,0.1598559390784259
154161.336143903,154161.336143903,0.06869850830256505,0.15936729767491023
154161.341143903,154161.341143903,0.06988293410728247,0.1588682347156387
154161.346143903,154161.346143903,0.07106533264879134,0.15835805676837852
154161.351143903,154161.351143903,0.24258188048023074,0.15783666800085672
154161.35614390302,154161.35614390302,0.07342368229838435,0.15730519985430946
154161.36114390302,154161.36114390302,0.07459942888085928,0.15676276752701981
154161.36614390303,154161.36614390303,0.07577266406880782,0.15620943721456484
154161.37114390303,154161.37114390303,0.07694336212082549,0.15564565460019875
154161.37614390303,154161.37614390303,0.07811136470763726,0.15507129908258768
154161.38114390304,154161.38114390304,0.07927650603741192,0.15448625439765054
154161.38614390304,154161.38614390304,0.0804387740269593,0.1538909581904595
154161.39114390305,154161.39114390305,0.08159801024247697,0.15328531062408338
154161.39614390305,154161.39614390305,0.08275402456677936,0.15266913156610465
154161.40114390306,154161.40114390306,0.08390670227032464,0.15204250856484394
154161.40614390306,154161.40614390306,0.08505623942507562,0.1514064307250405
154161.41114390307,154161.41114390307,0.08620213554023572,0.1507597996041198
154161.41614390307,154161.41614390307,0.08734429746535274,0.15010278556657525
154161.42114390308,154161.42114390308,0.08848291015890883,0.14943625467422228
154161.42614390308,154161.42614390308,0.08961753278924639,0.1487594128531686
154161.4311439031,154161.4311439031,0.09074831041348795,0.1480729848152868
154161.4361439031,154161.4361439031,0.09187491689197716,0.1473765155205546
154161.4411439031,154161.4411439031,0.09299739558723089,0.14667044790062278
154161.4461439031,154161.4461439031,0.2801867343389644,0.14595460483074432
154161.4511439031,154161.4511439031,0.09522903786731769,0.14522873213423068
154161.4561439031,154161.4561439031,0.09633843640401987,0.1444942024389658
154161.4611439031,154161.4611439031,0.09744309512691621,0.1437499910989055
154161.46614390312,154161.46614390312,0.09854294415984534,0.14299627021916847
154161.47114390312,154161.47114390312,0.09963781207435207,0.1422330130551117
154161.47614390313,154161.47614390313,0.10072795357302451,0.14146097387109896
154161.48114390313,154161.48114390313,0.10181289678042256,0.14067955617512604
154161.48614390314,154161.48614390314,0.16152196263141286,0.13988905170490573
154161.49114390314,154161.49114390314,0.10396714073721589,0.13908961328218963
154161.49614390315,154161.49614390315,0.510325615555699,0.39253815088683097
154161.50114390315,154161.50114390315,0.1060995173925796,0.13746359708870767
154161.50614390316,154161.50614390316,0.1071577926239602,0.13663812918211246
154161.51114390316,154161.51114390316,0.1082099916829102,0.13580343900327344
154161.51614390317,154161.51614390317,0.10925641569083668,0.13496023902099172
154161.52114390317,154161.52114390317,0.11029697252792439,0.1341086244613515
154161.52614390317,154161.52614390317,0.11133138818307299,0.13324844420621723
154161.53114390318,154161.53114390318,0.11235980868223792,0.13238012630169088
154161.53614390318,154161.53614390318,0.11338182531529616,0.13150334894757038
154161.5411439032,154161.5411439032,0.4473992799634627,0.130618595255413
154161.5461439032,154161.5461439032,0.27019340834820643,0.1297256794500079
154161.5511439032,154161.5511439032,0.11640963882743857,0.12882474035500718
154161.5561439032,154161.5561439032,0.11740593353716032,0.1279161887369362
154161.5611439032,154161.5611439032,0.42601940239924085,0.1269996742687213
154161.5661439032,154161.5661439032,0.1193776464917327,0.38918623370254923
154161.57114390322,154161.57114390322,0.12035347291509166,0.12514355607508834
154161.57614390322,154161.57614390322,0.12132203309591606,0.12420418190328997
154161.58114390323,154161.58114390323,0.12228354281136267,0.12325747198547304
154161.58614390323,154161.58614390323,0.12323778808846331,0.12230339852403108
154161.59114390324,154161.59114390324,0.12418469465805837,0.12134207952143759
154161.59614390324,154161.59614390324,0.12512421344988922,0.120373655346601
154161.60114390324,154161.60114390324,0.12605615792992578,0.11939813639640368
154161.60614390325,154161.60614390325,0.3797045058659644,0.11841573162592565
154161.61114390325,154161.61114390325,0.12789728104016213,0.5577000112201954
154161.61614390326,154161.61614390326,0.1288057499597111,0.3269711989430126
154161.62114390326,154161.62114390326,0.1297072017913944,0.11542786290431277
154161.62614390327,154161.62614390327,0.13060020563195238,0.114418639953673
154161.63114390327,154161.63114390327,0.1314849981702303,0.11340285942804723
154161.63614390328,154161.63614390328,0.13236200027058714,0.11238101613322604
154161.64114390328,154161.64114390328,0.1332304849556907,0.11135272105058736
154161.6461439033,154161.6461439033,0.13409082455299864,0.11031842242781191
154161.6511439033,154161.6511439033,0.19393540262352638,0.10927799368553175
154161.6561439033,154161.6561439033,0.1357860374698209,0.10823172116813418
154161.6611439033,154161.6611439033,0.13662085104053406,0.10717960541893444
154161.6661439033,154161.6661439033,0.13744672570479724,0.10612159283422887
154161.6711439033,154161.6711439033,0.13826437472353867,0.7342037571448508
154161.6761439033,154161.6761439033,0.1390728999753771,0.10398931413340495
154161.68114390332,154161.68114390332,0.17072905318715878,0.1029149521329918
154161.68614390332,154161.68614390332,0.14066311979038254,0.10183523708969158
154161.69114390333,154161.69114390333,0.1414447934578111,0.1007504395578254
154161.69614390333,154161.69614390333,0.14221729923308782,0.09966055228448381
154161.70114390334,154161.70114390334,0.1429804840632628,0.09856564512201528
154161.70614390334,154161.70614390334,0.3922408413119177,0.09746589160228498
154161.71114390335,154161.71114390335,0.1444789979635543,0.09636143073136659
154161.71614390335,154161.71614390335,0.14521363631905304,0.09525208369519053
154161.72114390336,154161.72114390336,0.14593972285619566,0.09413867148991975
154161.72614390336,154161.72614390336,0.14665549510398637,0.0930205097574843
154161.73114390337,154161.73114390337,0.14736196477809804,0.09189820885521424
154161.73614390337,154161.73614390337,0.14805860991532352,0.09077167712786355
154161.74114390337,154161.74114390337,0.1487453235867968,0.0896410164971225
154161.74614390338,154161.74614390338,0.14942233483886497,0.08850646020864467
154161.75114390338,154161.75114390338,0.15008930351546682,0.08736801298642956
154161.7561439034,154161.7561439034,0.15074619793288446,0.08622580572388507
154161.7611439034,154161.7611439034,0.15139313766388474,0.08508001889170902
154161.7661439034,154161.7661439034,0.1520296039431206,0.08393061225132235
154161.7711439034,154161.7711439034,0.15265634839567235,0.08277797246127988
154161.7761439034,154161.7761439034,0.1532726645420851,0.0816220003205547
154161.7811439034,154161.7811439034,0.15387859292265493,0.08046284716403784
154161.78614390342,154161.78614390342,0.15447419509035776,0.07930066565811497
154161.79114390342,154161.79114390342,0.1550592959926522,0.07813553861008916
154161.79614390343,154161.79614390343,0.15563387991778913,0.0769675955679142
154161.80114390343,154161.80114390343,0.15619796323965035,0.07579697169209204
154161.80614390344,154161.80614390344,0.8784385710235477,0.07462376865749151
154161.81114390344,154161.81114390344,0.2679895148739787,0.37975296527022856
154161.81614390344,154161.81614390344,0.1578258924270143,0.07227000677329817
154161.82114390345,154161.82114390345,0.15834734745222204,0.07108980522945554
154161.82614390345,154161.82614390345,0.15885788173917045,0.0699074735246156
154161.83114390346,154161.83114390346,0.1593572158805389,0.06872309450898939
154161.83614390346,154161.83614390346,0.15984588666258615,0.067536890266084
154161.84114390347,154161.84114390347,0.16032355882128363,0.06634892866703884
154161.84614390347,154161.84614390347,0.16079004772867034,0.06515930980336085
154161.85114390348,154161.85114390348,0.16124550314170283,0.06396818251095747
154161.85614390348,154161.85614390348,0.1616899146588314,0.06277566829107875
154161.8611439035,154161.8611439035,0.1621231096903356,0.061581870653528534
154161.8661439035,154161.8661439035,0.1625448014085206,0.060386887742042025
154161.8711439035,154161.8711439035,0.1629557674287341,0.059190915845091896
154161.8761439035,154161.8761439035,0.1633553288009618,0.05799401195396246
154161.8811439035,154161.8811439035,0.16374314971601683,0.05679628209645167
154161.8861439035,154161.8861439035,0.16411998433451425,0.05559789655039645
154161.89114390351,154161.89114390351,0.16448532690022835,0.25105442370878384
154161.89614390352,154161.89614390352,0.16483922064713996,0.0531995553225194
154161.90114390352,154161.90114390352,0.165181347571774,0.051999838465912156
154161.90614390353,154161.90614390353,0.16551245176765786,0.05079993131382539
154161.91114390353,154161.91114390353,0.16583164402946202,0.05040006018389837
154161.91614390354,154161.91614390354,0.16613931213506966,0.22729499903611258
154161.92114390354,154161.92114390354,0.1664356740441149,0.05279980615919164
154161.92614390355,154161.92614390355,0.16672014320006173,0.0539993188457973
154161.93114390355,154161.93114390355,0.1669929778789781,0.05519843314482819
154161.93614390356,154161.93614390356,0.16725375951159327,0.056397009145893434
154161.94114390356,154161.94114390356,0.16750341489351273,0.2337848822802172
154161.94614390357,154161.94614390357,0.16774088460014364,0.05879216018943954
154161.95114390357,154161.95114390357,0.1679660195925059,0.059988413250892145
154161.95614390358,154161.95614390358,0.1681809237313993,0.061183800428750816
154161.96114390358,154161.96114390358,0.16838320405343965,0.6835363185888664
154161.96614390358,154161.96614390358,0.168573451831412,0.06357094504510756
154161.9711439036,154161.9711439036,0.16875213024932115,0.06476256397149846
154161.9761439036,154161.9761439036,0.16891874761503467,0.06595268411359038
154161.9811439036,154161.9811439036,0.169073488082202,0.06714121038914245
154161.9861439036,154161.9861439036,0.16921641281421868,0.06832803596924372
154161.9911439036,154161.9911439036,0.16934740350811875,0.06951302784858103
154161.9961439036,154161.9961439036,0.16946631141672722,0.07069604369622258
154162.00114390362,154162.00114390362,0.1695729382447987,0.07187692737698304
154162.00614390362,154162.00614390362,0.16966845679769538,0.07305577743675405
154162.01114390363,154162.01114390363,0.16975154522031186,0.0742322367691054
154162.01614390363,154162.01614390363,0.1698224315335993,0.07540622347119277
154162.02114390364,154162.02114390364,0.16988178389732983,0.07657776412344813
154162.02614390364,154162.02614390364,0.169929186528216,0.26693978759772097
154162.03114390364,154162.03114390364,0.1699643219881983,0.07891271718952836
154162.03614390365,154162.03614390365,0.1699870907739851,0.0800757898201448
154162.04114390365,154162.04114390365,0.16999872789309048,0.08123607235513089
154162.04614390366,154162.04614390366,0.16999798786535808,0.0823931379922897
154162.05114390366,154162.05114390366,0.16998486946616023,0.08354685992972201
154162.05614390367,154162.05614390367,0.6401449326243254,0.0846973801359998
154162.06114390367,154162.06114390367,0.16992348202604562,0.08584435592074387
154162.06614390368,154162.06614390368,0.1698744706202917,0.14177316862880973
154162.07114390368,154162.07114390368,0.16981408224012703,0.10416772216379883
154162.0761439037,154162.0761439037,0.16974135816902833,0.08926340892274545
154162.0811439037,154162.0811439037,0.16965660348221506,0.09039536430905652
154162.0861439037,154162.0861439037,0.1695598325733163,0.09152326215606327
154162.0911439037,154162.0911439037,0.1694510095005831,0.2993461661300797
154162.0961439037,154162.0961439037,0.24426130136869587,0.09376657625353095
154162.1011439037,154162.1011439037,0.16919798394173452,0.09488164109555897
154162.10614390371,154162.10614390371,0.16905357628728276,0.0959922975674268
154162.11114390372,154162.11114390372,0.1688972880508542,0.4877847380517343
154162.11614390372,154162.11614390372,0.1687291017800948,0.09819972093443885
154162.12114390373,154162.12114390373,0.16854895993876148,0.09929622306733492
154162.12614390373,154162.12614390373,0.16835696473321382,0.10038779580160678
154162.13114390374,154162.13114390374,0.16815278226608532,0.24463545653288568
154162.13614390374,154162.13614390374,0.16793762016862415,0.1025557733928029
154162.14114390375,154162.14114390375,0.1677101037441077,0.10363186908213143
154162.14614390375,154162.14614390375,0.16747086640715897,0.10470262231817831
154162.15114390376,154162.15114390376,0.16722016388908328,0.10576803898671665
154162.15614390376,154162.15614390376,0.1669572997180887,0.10682766937295166
154162.16114390377,154162.16114390377,0.16668288728851632,0.10788168625568724
154162.16614390377,154162.16614390377,0.1663969629896119,0.10892999220252683
154162.17114390378,154162.17114390378,0.16609946725021815,0.1099724424339966
154162.17614390378,154162.17614390378,0.16579002885277638,0.11100872342378393
154162.18114390378,154162.18114390378,0.16546898383749428,0.1120388854944518
154162.1861439038,154162.1861439038,0.1651369061891383,0.11306312034404938
154162.1911439038,154162.1911439038,0.7557749245838075,0.1140809409039118
154162.1961439038,154162.1961439038,0.16443762127264783,0.3650644296058046
154162.2011439038,154162.2011439038,0.16407054273163207,0.11609693284791514
154162.2061439038,154162.2061439038,0.16369260812316536,0.11709534091617708
154162.2111439038,154162.2111439038,0.1633030151670504,0.11808687198713085
154162.21614390382,154162.21614390382,0.16290208846134613,0.11907159230821444
154162.22114390382,154162.22114390382,0.162489854226641,0.1200493949177037
154162.22614390383,154162.22614390383,0.1620663732782211,0.12102019388650938
154162.23114390383,154162.23114390383,0.16163145695144304,0.12198374295112702
154162.23614390384,154162.23614390384,0.16118578890402574,0.12294035825394516
154162.24114390384,154162.24114390384,0.1607287561775427,0.123889519055315
154162.24614390385,154162.24614390385,0.16026037910976013,0.1248311046584236
154162.25114390385,154162.25114390385,0.15978186328511895,0.13190299230028774
154162.25614390385,154162.25614390385,0.5654644786789009,0.12669252019341057
154162.26114390386,154162.26114390386,0.15879078998007756,0.12761161754677666
154162.26614390386,154162.26614390386,0.15827894124246433,0.12852294596311228
154162.27114390387,154162.27114390387,0.15775628220865107,0.12942643490445727
154162.27614390387,154162.27614390387,0.15722282063522294,0.13032196143941369
154162.28114390388,154162.28114390388,0.156678517710769,0.1312093646967919
154162.28614390388,154162.28614390388,0.15612383843507477,0.1320888693635301
154162.2911439039,154162.2911439039,0.15555833065654281,0.13295999914288714
154162.2961439039,154162.2961439039,0.15498241940320137,0.13382295315920312
154162.3011439039,154162.3011439039,0.154395713022092,0.13467728658485376
154162.3061439039,154162.3061439039,0.15379887562159786,0.1355234009877789
154162.3111439039,154162.3111439039,0.15319159164500584,0.13636090997435743
154162.3161439039,154162.3161439039,0.15257375115221808,0.13718958273699774
154162.32114390392,154162.32114390392,0.15194596641154515,0.31268282189495733
154162.32614390392,154162.32614390392,0.33151663563765954,0.13882112037676075
154162.33114390392,154162.33114390392,0.15065954531411765,0.13962346687648225
154162.33614390393,154162.33614390393,0.15000147172794448,0.1404171376354313
154162.34114390393,154162.34114390393,0.1493331929370374,0.14120158393552246
154162.34614390394,154162.34614390394,0.1486549043811961,0.14197683913031509
154162.35114390394,154162.35114390394,0.1479667916280778,0.14274293401375193
154162.35614390395,154162.35614390395,0.14726888134971988,0.14349975306748644
154162.36114390395,154162.36114390395,0.14656125759033173,0.1442472345821627
154162.36614390396,154162.36614390396,0.1458439054287067,0.1449852198575056
154162.37114390396,154162.37114390396,0.14511722760327808,0.14571396315528876
154162.37614390397,154162.37614390397,0.14438083196344828,0.14643293055261786
154162.38114390397,154162.38114390397,0.14363451060386445,0.1471417470794968
154162.38614390398,154162.38614390398,0.14287985180808582,0.1478419150929548
154162.39114390398,154162.39114390398,0.14211535888801083,0.14853173040619824
154162.39614390398,154162.39614390398,0.14134179542114741,0.14921184428401432
154162.401143904,154162.401143904,0.14055889346391215,0.34561009215405303
154162.406143904,154162.406143904,0.5130618765198117,0.15054190865216346
154162.411143904,154162.411143904,0.13896616078292312,0.2779885913585043
154162.416143904,154162.416143904,0.1381563063183821,0.15183167132516168
154162.421143904,154162.421143904,0.13733804950821774,0.15246174287002984
154162.426143904,154162.426143904,0.13651073052793894,0.15308118733484097
154162.43114390402,154162.43114390402,0.13567456809136869,0.15369008881111568
154162.43614390402,154162.43614390402,0.13483035658500955,0.15428925076681166
154162.44114390403,154162.44114390403,0.13397729101696426,0.1548775308905322
154162.44614390403,154162.44614390403,0.13311584834672657,0.15545534587328275
154162.45114390404,154162.45114390404,0.1322461213181257,0.1560226477530183
154162.45614390404,154162.45614390404,0.1313683186204399,0.15657954098820642
154162.46114390405,154162.46114390405,0.13048232535217236,0.15712570936940243
154162.46614390405,154162.46614390405,0.1295879406071118,0.1576607043590435
154162.47114390405,154162.47114390405,0.12868608747442753,0.15818559259966739
154162.47614390406,154162.47614390406,0.12777617943605804,0.1586994119056746
154162.48114390406,154162.48114390406,0.12685826813067536,0.15920204137117963
154162.48614390407,154162.48614390407,0.12593310869742713,0.15969437346317353
154162.49114390407,154162.49114390407,0.12500012649314152,0.16017540994267546
154162.49614390408,154162.49614390408,0.9040425342122087,0.16064552628026554
154162.50114390408,154162.50114390408,0.12311172137695212,0.16110432990640386
154162.5061439041,154162.5061439041,0.12215654964294055,0.16155221551530288
154162.5111439041,154162.5111439041,0.12119410389168522,0.16198885548186376
154162.5161439041,154162.5161439041,0.12022455724698779,0.16241432493733363
154162.5211439041,154162.5211439041,0.12931069578260412,0.16282876114698705
154162.5261439041,154162.5261439041,0.11826456849890735,0.16323161698668218
154162.5311439041,154162.5311439041,0.11727408521168216,0.16362296315081953
154162.53614390412,154162.53614390412,0.11627725519560381,0.16400359067148665
154162.54114390412,154162.54114390412,0.11527351629909574,0.16437233836091705
154162.54614390412,154162.54614390412,0.11426340956817453,0.1647299278428098
154162.55114390413,154162.55114390413,0.11324673343015942,0.16507579011991153
154162.55614390413,154162.55614390413,0.11222383592500294,0.165410332322954
154162.56114390414,154162.56114390414,0.11119462465194532,0.16573316350970735
154162.56614390414,154162.56614390414,0.11015930376233504,0.16604443766990423
154162.57114390415,154162.57114390415,0.10911809454137261,0.16634435394966207
154162.57614390415,154162.57614390415,0.10807091493372385,0.16663252559239594
154162.58114390416,154162.58114390416,0.10701776723050417,0.16690870563132298
154162.58614390416,154162.58614390416,0.1059591121073352,0.16717359232449294
154162.59114390417,154162.59114390417,0.1048948093369438,0.16742665580758034
154162.59614390417,154162.59614390417,0.1038250608797709,0.16766807316141388
154162.60114390418,154162.60114390418,0.10274984461118701,0.16789753826113293
154162.60614390418,154162.60614390418,0.10166936742681797,0.1681152430590099
154162.61114390419,154162.61114390419,0.10058374586424855,0.1683211872670124
154162.6161439042,154162.6161439042,0.0994928784776585,0.16851485262088534
154162.6211439042,154162.6211439042,0.09839741369150352,0.1686975060903599
154162.6261439042,154162.6261439042,0.7830789037660835,0.16886801795250522
154162.6311439042,154162.6311439042,0.0961917183086922,0.16902633115469445
154162.6361439042,154162.6361439042,0.09508195798249221,0.16917308599346145
154162.6411439042,154162.6411439042,0.09396758524979656,0.16930764881959684
154162.64614390422,154162.64614390422,0.09284885642057805,0.16943038862665022
154162.65114390422,154162.65114390422,0.0917258648241168,0.16954124843492335
154162.65614390423,154162.65614390423,0.0905986775717398,0.16964009008264244
154162.66114390423,154162.66114390423,0.0894674398293799,0.16972699569766345
154162.66614390424,154162.66614390424,0.08833225495536644,0.16980192940765498
154162.67114390424,154162.67114390424,0.0871932231841391,0.1698648404688033
154162.67614390425,154162.67614390425,0.08605042853589297,0.16991561936725047
154162.68114390425,154162.68114390425,0.08490391304980392,0.1699539961553223
154162.68614390426,154162.68614390426,0.0837542370370548,0.16998151478097934
154162.69114390426,154162.69114390426,0.0826010167932895,0.16999645171193925
154162.69614390426,154162.69614390426,0.0814445621777819,0.737058066000092
154162.70114390427,154162.70114390427,0.08028493215490613,0.1699904038561252
154162.70614390427,154162.70614390427,0.0791223048468658,0.7323629146322976
154162.71114390428,154162.71114390428,0.07795673022611267,0.16993635340636046
154162.71614390428,154162.71614390428,0.07678822055955117,0.16989063316202052
154162.7211439043,154162.7211439043,0.0756173326818387,0.3434477279128688
154162.7261439043,154162.7261439043,0.07444373418561255,0.1697652602163271
154162.7311439043,154162.7311439043,0.07326763619320244,0.16968398487532313
154162.7361439043,154162.7361439043,0.07208934523197774,0.16959143935362825
154162.7411439043,154162.7411439043,0.07090875190207646,0.16948644282307146
154162.7461439043,154162.7461439043,0.06972609454064785,0.16936965068640483
154162.75114390432,154162.75114390432,0.09930210936305117,0.16924089860667244
154162.75614390432,154162.75614390432,0.06735495550455109,0.16910012258769186
154162.76114390432,154162.76114390432,0.06616672691291733,0.16894751159384228
154162.76614390433,154162.76614390433,0.06497684309358166,0.31826937111849773
154162.77114390433,154162.77114390433,0.06378552493796043,0.1686065124667827
154162.77614390434,154162.77614390434,0.13995643632362936,0.16841832777206786
154162.78114390434,154162.78114390434,0.06139875634931035,0.16821748210778756
154162.78614390435,154162.78614390435,0.0602036992231725,0.16800625036685365
154162.79114390435,154162.79114390435,0.05900755896509796,0.16778256324440954
154162.79614390436,154162.79614390436,0.057810517273988185,0.16754709870777038
154162.80114390436,154162.80114390436,0.05661268131408369,0.16729965815171774
154162.80614390437,154162.80614390437,0.05541420344270281,0.16704082915361687
154162.81114390437,154162.81114390437,0.054215163806319466,0.16676982582809194
154162.81614390438,154162.81614390438,0.053015713789502907,0.166487346449303
154162.82114390438,154162.82114390438,0.05181597253905648,0.16619366072181282
154162.82614390439,154162.82614390439,0.05061604091530804,0.16588812809131936
154162.8311439044,154162.8311439044,0.050583951928989054,0.16557042932675256
154162.8361439044,154162.8361439044,0.05178388945761815,0.16524205321164653
154162.8411439044,154162.8411439044,0.0529836469853667,0.16490175260751538
154162.8461439044,154162.8461439044,0.054183089212972074,0.164549510356236
154162.8511439044,154162.8511439044,0.05538214939943957,0.16418675180149137
154162.8561439044,154162.8561439044,0.05658064708469848,0.16381198612100992
154162.86114390442,154162.86114390442,0.05777848944240725,0.1634259064606714
154162.86614390442,154162.86614390442,0.05897556388606366,0.16302861895639198
154162.87114390443,154162.87114390443,0.06017172882952774,0.16261986851207658
154162.87614390443,154162.87614390443,0.4129235442407263,0.16219988440879116
154162.88114390444,154162.88114390444,0.06256090262689293,0.16176878900583105
154162.88614390444,154162.88614390444,0.06375364683366899,0.16132630676534992
154162.89114390445,154162.89114390445,0.06494504911573448,0.16087295957865763
154162.89614390445,154162.89614390445,0.06613487882845305,0.16040797288756795
154162.90114390446,154162.90114390446,0.06732320086668653,0.15993266975163606
154162.90614390446,154162.90614390446,0.06850974680770978,0.1594460758594503
154162.91114390446,154162.91114390446,0.06969442829155026,0.25323130536461513
154162.91614390447,154162.91614390447,0.07087713928031371,0.15843995072568043
154162.92114390447,154162.92114390447,0.07205777761562301,0.15792067862010128
154162.92614390448,154162.92614390448,0.07323621825749732,0.15739064996602592
154162.93114390448,154162.93114390448,0.07441234179841859,0.15684990391543954
154162.9361439045,154162.9361439045,0.07558598537157364,0.1562983041564419
154162.9411439045,154162.9411439045,0.07675708732994241,0.15573615040925576
154162.9461439045,154162.9461439045,0.07792539345081317,0.15516297506266433
154162.9511439045,154162.9511439045,0.0790911751099994,0.15458028399801732
154162.9561439045,154162.9561439045,0.08025390173525009,0.1539865885873104
154162.9611439045,154162.9611439045,0.08141360281263073,0.1533824951412306
154162.96614390452,154162.96614390452,0.08257008511988523,0.15276781977576612
154162.97114390452,154162.97114390452,0.08372347080786656,0.1521433734302423
154162.97614390453,154162.97614390453,0.08487339092007136,0.15150842157832953
154162.98114390453,154162.98114390453,0.08601977192223563,0.6807815495279188
154162.98614390453,154162.98614390453,0.08716267599219371,0.1502081963197642
154162.99114390454,154162.99114390454,0.08830183648386562,0.14954311147550314
154162.99614390454,154162.99614390454,0.08943714343786331,0.6123256775452615
154163.00114390455,154163.00114390455,0.09056847856855187,0.14818294753112574
154163.00614390455,154163.00614390455,0.09169578050580605,0.14748812780660217
154163.01114390456,154163.01114390456,0.09281888861598184,0.14678350332195267
154163.01614390456,154163.01614390456,0.09393773671606455,0.14606925138509033
154163.02114390457,154163.02114390457,0.09505220855709814,0.1453454287108883
154163.02614390457,154163.02614390457,0.09616213322285877,0.14461198347559132
154163.03114390458,154163.03114390458,0.09726745697871922,0.42520295322207613
154163.03614390458,154163.03614390458,0.09836806146932779,0.14311686436362756
154163.0411439046,154163.0411439046,0.1807830379940727,0.14235534192029894
154163.0461439046,154163.0461439046,0.22520587510697704,0.14158449577166315
154163.0511439046,154163.0511439046,0.6034154891219599,0.1408045125599105
154163.0561439046,154163.0561439046,0.2746143451989295,0.14001552705056222
154163.0611439046,154163.0611439046,0.10379633671953255,0.13921747939176995
154163.0661439046,154163.0661439046,0.104866195805511,0.13841037669625017
154163.0711439046,154163.0711439046,0.10593076973001737,0.13759475885354958
154163.07614390462,154163.07614390462,0.10698963689211843,0.13677019757022368
154163.08114390462,154163.08114390462,0.10804258882447433,0.13593663952207635
154163.08614390463,154163.08614390463,0.10909017770548311,0.13509514060972327
154163.09114390463,154163.09114390463,0.11013159630703945,0.1342447485232762
154163.09614390464,154163.09614390464,0.11116705823160715,0.13338601171826495
154163.10114390464,154163.10114390464,0.11219642190055042,0.132518959654255
154163.10614390465,154163.10614390465,0.11321954142904472,0.16632827090556235
154163.11114390465,154163.11114390465,0.11423625969606567,0.13076001880178287
154163.11614390466,154163.11614390466,0.11524655526660939,0.1298683454843363
154163.12114390466,154163.12114390466,0.11625050870437836,0.6803150533308813
154163.12614390466,154163.12614390466,0.1172477302950372,0.12806144064224517
154163.13114390467,154163.13114390467,0.1182382017470675,0.12714613880203132
154163.13614390467,154163.13614390467,0.11922185037222437,0.4228717798333229
154163.14114390468,154163.14114390468,0.5481608156466031,0.12529251414417483
154163.14614390468,154163.14614390468,0.1211683464316613,0.12435439095966548
154163.1511439047,154163.1511439047,0.12213076635849966,0.12340861824598232
154163.1561439047,154163.1561439047,0.12308635389395224,0.12245589093827601
154163.1611439047,154163.1611439047,0.12403441684257445,0.12149570009003569
154163.1661439047,154163.1661439047,0.12497441071660711,0.12052773444085955
154163.1711439047,154163.1711439047,0.12590831042146983,0.11955403522855762
154163.1761439047,154163.1761439047,0.37138956273845286,0.11857269358238542
154163.18114390472,154163.18114390472,0.8406304641391384,0.11758454146080807
154163.18614390472,154163.18614390472,0.12866197313328948,0.11658960037216637
154163.19114390473,154163.19114390473,0.1295642052304389,0.11558796750030405
154163.19614390473,154163.19614390473,0.24038296983539162,0.11457975561445179
154163.20114390473,154163.20114390473,0.1313447777147017,0.11356518327208993
154163.20614390474,154163.20614390474,0.1322228837267031,0.6931506457011976
154163.21114390474,154163.21114390474,0.13309276791958685,0.11151694055528542
154163.21614390475,154163.21614390475,0.13395434645411847,0.11048354455137545
154163.22114390475,154163.22114390475,0.13480756629739846,0.10944412704686077
154163.22614390476,154163.22614390476,0.13565233256232878,0.1083987827830906
154163.23114390476,154163.23114390476,0.1364884554887769,0.10734754530331767
154163.23614390477,154163.23614390477,0.1373160509050856,0.10629065268798661
154163.24114390477,154163.24114390477,0.13813475854396642,0.10522803006786352
154163.24614390478,154163.24614390478,0.13894473302998298,0.10415993600406935
154163.25114390478,154163.25114390478,0.13974577464919524,0.10308640287839557
154163.2561439048,154163.2561439048,0.14053786411432828,0.10200757510466373
154163.2611439048,154163.2611439048,0.14132094728767888,0.10092357324372037
154163.2661439048,154163.2661439048,0.14209433376969927,0.09983417212761772
154163.2711439048,154163.2711439048,0.1428595905226624,0.09874037159035663
154163.2761439048,154163.2761439048,0.14361496341110289,0.09764137464016587
154163.2811439048,154163.2811439048,0.1443610068198555,0.09653763053458964
154163.2861439048,154163.2861439048,0.14509762175515745,0.09542923677299744
154163.29114390482,154163.29114390482,0.14582478426518525,0.0943163267565695
154163.29614390482,154163.29614390482,0.1465422939479461,0.09319895200031729
154163.30114390483,154163.30114390483,0.14724977011676746,0.09207709293280247
154163.30614390483,154163.30614390483,0.14794820849203352,0.09095132638621883
154163.31114390484,154163.31114390484,0.14863669597632173,0.08982139271895305
154163.31614390484,154163.31614390484,0.14931446016039912,0.08868713794435253
154163.32114390485,154163.32114390485,0.14998369883299495,0.08754956299034823
154163.32614390485,154163.32614390485,0.15064218512718,0.08640794119973035
154163.33114390486,154163.33114390486,0.1512906980589218,0.08526271211508836
154163.33614390486,154163.33614390486,0.15192914311196642,0.08411397696647331
154163.34114390487,154163.34114390487,0.1525572549257616,0.08296178303652142
154163.34614390487,154163.34614390487,0.3337520280857201,0.08180629114859356
154163.35114390487,154163.35114390487,0.1537822974921766,0.08064752213896632
154163.35614390488,154163.35614390488,0.15437995087784656,0.0794859361040176
154163.36114390488,154163.36114390488,0.15496674432786223,0.0783212759155229
154163.3661439049,154163.3661439049,0.15554307281542404,0.07715379118400895
154163.3711439049,154163.3711439049,0.1561084107758879,0.4142105599973103
154163.3761439049,154163.3761439049,0.156663917784355,0.07481076833394351
154163.3811439049,154163.3811439049,0.15720829404452324,0.07363546036703635
154163.3861439049,154163.3861439049,0.15774168761609003,0.07245773555526523
154163.3911439049,154163.3911439049,0.15826493039577075,0.07127789685624328
154163.39614390492,154163.39614390492,0.15877720748792992,0.07009589724673031
154163.40114390492,154163.40114390492,0.15927854451572618,0.06891187413534625
154163.40614390493,154163.40614390493,0.15976889231976357,0.06772594787402864
154163.41114390493,154163.41114390493,0.16024816000094547,0.06653823317279559
154163.41614390493,154163.41614390493,0.16071651868048603,0.0653488826098353
154163.42114390494,154163.42114390494,0.16117378703829985,0.0641579940428704
154163.42614390494,154163.42614390494,0.6140999732936572,0.06296569478811061
154163.43114390495,154163.43114390495,0.16205484932904204,0.06177207990907976
154163.43614390495,154163.43614390495,0.16247805475641106,0.06057724696954153
154163.44114390496,154163.44114390496,0.16289119196244592,0.059381467588164615
154163.44614390496,154163.44614390496,0.3034413384229131,0.05818469263734034
154163.45114390497,154163.45114390497,0.1636823050929529,0.05698709619201467
154163.45614390497,154163.45614390497,0.16406077836931415,0.05578880042832242
154163.46114390498,154163.46114390498,0.16442798832442487,0.05458993295756399
154163.46614390498,154163.46614390498,0.16478365632204559,0.2143550689787993
154163.471143905,154163.471143905,0.16512766897431008,0.05219092865462967
154163.476143905,154163.476143905,0.16546050055902148,0.050991043530058636
154163.481143905,154163.481143905,0.16578172986007358,0.05025356505008288
154163.486143905,154163.486143905,0.1660912340796586,0.05140890920027225
154163.491143905,154163.491143905,0.16638920060341528,0.05260873471695787
154163.496143905,154163.496143905,0.16667556268968517,0.05380830014159118
154163.501143905,154163.501143905,0.1669502002011073,0.4839774813666813
154163.50614390502,154163.50614390502,0.16721329936960636,0.056206173329626956
154163.51114390502,154163.51114390502,0.16746428028277974,0.057404220703995985
154163.51614390503,154163.51614390503,0.1677039848422433,0.05860155656033228
154163.52114390503,154163.52114390503,0.1679315026164322,0.05979800235395109
154163.52614390504,154163.52614390504,0.16814761118381188,0.06099349895127536
154163.53114390504,154163.53114390504,0.16835168721233593,0.0621878778766811
154163.53614390505,154163.53614390505,0.16854347039923678,0.06338098489087488
154163.54114390505,154163.54114390505,0.1687244451563939,0.06457287350906597
154163.54614390506,154163.54614390506,0.1688929623468559,0.06576323743042677
154163.55114390506,154163.55114390506,0.3293093178580322,0.06695202551171486
154163.55614390507,154163.55614390507,0.16919436330686052,0.3109696594736204
154163.56114390507,154163.56114390507,0.16932725062990225,0.06932441315112234
154163.56614390507,154163.56614390507,0.16944808068768275,0.07050775045526955
154163.57114390508,154163.57114390508,0.16955657217337572,0.07168896377656418
154163.57614390508,154163.57614390508,0.1696541733500949,0.072868203123083
154163.5811439051,154163.5811439051,0.16973922533554853,0.07404504963242815
154163.5861439051,154163.5861439051,0.16981231292112128,0.07521949363231724
154163.5911439051,154163.5911439051,0.1698732776678085,0.07639138494275498
154163.5961439051,154163.5961439051,0.16992251822685947,0.07756069534595648
154163.6011439051,154163.6011439051,0.16995956497469497,0.07872720398635039
154163.6061439051,154163.6061439051,0.16998453855881837,0.07989081981082786
154163.61114390512,154163.61114390512,0.16999776113332776,0.08105150717260992
154163.61614390512,154163.61614390512,0.169998876140953,0.08220906288574444
154163.62114390513,154163.62114390513,0.16998783281966362,0.17831414999991202
154163.62614390513,154163.62614390513,0.16996511026042282,0.08451439675721197
154163.63114390514,154163.63114390514,0.16993023620626727,0.0856619453201335
154163.63614390514,154163.63614390514,0.9468652460820429,0.08680595844111565
154163.64114390514,154163.64114390514,0.16982441394788186,0.08794619868713602
154163.64614390515,154163.64614390515,0.16975362528496915,0.08908272145786357
154163.65114390515,154163.65114390515,0.5280595431935768,0.09021536150964224
154163.65614390516,154163.65614390516,0.1695760536707778,0.0913439053528945
154163.66114390516,154163.66114390516,0.16946922694573044,0.09246831723731848
154163.66614390517,154163.66614390517,0.16935057447554697,0.09358852484522773
154163.67114390517,154163.67114390517,0.1692200835850337,0.09470441053016705
154163.67614390518,154163.67614390518,0.16907749727022417,0.09581576164219961
154163.68114390518,154163.68114390518,0.1689230112356792,0.09692253374288895
154163.6861439052,154163.6861439052,0.16875643955237613,0.09802453481825707
154163.6911439052,154163.6911439052,0.16857840692820958,0.09912190030295673
154163.6961439052,154163.6961439052,0.43445609575365085,0.10021423763991424
154163.7011439052,154163.7011439052,0.16818608479285965,0.10130149206666161
154163.7061439052,154163.7061439052,0.16797263628012915,0.10238384257034316
154163.7111439052,154163.7111439052,0.16774719762971468,0.10346087274384255
154163.7161439052,154163.7161439052,0.16750972004583137,0.10453243610279636
154163.72114390522,154163.72114390522,0.5939014101121693,0.10559873654136265
154163.72614390522,154163.72614390522,0.16700008043166106,0.10665934920119972
154163.73114390523,154163.73114390523,0.16672745618379411,0.10771424363261164
154163.73614390523,154163.73614390523,0.16644337182449084,0.10876347125173583
154163.74114390524,154163.74114390524,0.16614750665674088,0.10980675367705191
154163.74614390524,154163.74614390524,0.6928844416550743,0.11084414580391615
154163.75114390525,154163.75114390525,0.16552062726877326,0.11187508923873209
154163.75614390525,154163.75614390525,0.1651905039406313,0.112900380543052
154163.76114390526,154163.76114390526,0.1648483752630007,0.4695124109600718
154163.76614390526,154163.76614390526,0.16449474968541397,0.11493145953628284
154163.77114390527,154163.77114390527,0.16413005339150313,0.11593752377406094
154163.77614390527,154163.77614390527,0.16375333551047996,0.11693664230043463
154163.78114390527,154163.78114390527,0.16336576476396775,0.11792937387450096
154163.78614390528,154163.78614390528,0.16296641779783222,0.11891504863591296
154163.79114390528,154163.79114390528,0.16255612436308253,0.1198940454923554
154163.7961439053,154163.7961439053,0.1621345779241562,0.12086605721039169
154163.8011439053,154163.8011439053,0.16170099560348086,0.12183045581762866
154163.8061439053,154163.8061439053,0.16125759804296222,0.12278854351718739
154163.8111439053,154163.8111439053,0.1608024730693306,0.12373896634884893
154163.8161439053,154163.8161439053,0.1603361816814832,0.12468195856501904
154163.8211439053,154163.8211439053,0.15985859056374735,0.12561729880475564
154163.82614390532,154163.82614390532,0.6391756456105434,0.12654542889000292
154163.83114390532,154163.83114390532,0.15887126043390848,0.2542750829221351
154163.83614390533,154163.83614390533,0.15836123109138325,0.12837835848490609
154163.84114390533,154163.84114390533,0.15784027952528085,0.1292830946017852
154163.84614390534,154163.84614390534,0.4695131266586466,0.13017983922638088
154163.85114390534,154163.85114390534,0.1567655275024096,0.1310682744586665
154163.85614390534,154163.85614390534,0.15621281832192951,0.1319492858084146
154163.86114390535,154163.86114390535,0.3868890903675278,0.1328218466666762
154163.86614390535,154163.86614390535,0.15507483848308612,0.13368606736700483
154163.87114390536,154163.87114390536,0.15448966583365303,0.13454163238678352
154163.87614390536,154163.87614390536,0.1538947011109996,0.13538927512638524
154163.88114390537,154163.88114390537,0.15328894858546643,0.13622805438558416
154163.88614390537,154163.88614390537,0.1526724456084356,0.13705785187008507
154163.89114390538,154163.89114390538,0.15204671385298343,0.13787982367874016
154163.89614390538,154163.89614390538,0.15141033212354463,0.13869263268037788
154163.9011439054,154163.9011439054,0.15076360456057147,0.13949639309495612
154163.9061439054,154163.9061439054,0.1501068838147572,0.14029127569270153
154163.9111439054,154163.9111439054,0.14944027715940905,0.14107724289789492
154163.9161439054,154163.9161439054,0.1487636494916456,0.14185403336503133
154163.9211439054,154163.9211439054,0.1480770972227914,0.14262159338694402
154163.9261439054,154163.9261439054,0.14738066683338324,0.1433798228640331
154163.9311439054,154163.9311439054,0.14667462996464034,0.14412883967335188
154163.93614390542,154163.93614390542,0.14595854814562442,0.1448680710449135
154163.94114390542,154163.94114390542,0.14523364766952318,0.14559858547501747
154163.94614390543,154163.94614390543,0.14449876171732368,0.14631908224084414
154163.95114390543,154163.95114390543,0.14375444817626054,0.14702996907541857
154163.95614390544,154163.95614390544,0.14300058173541297,0.1477309662142255
154163.96114390544,154163.96114390544,0.14223785540852002,0.1484226537662573
154163.96614390545,154163.96614390545,0.14146558796696157,0.149104163507453
154163.97114390545,154163.97114390545,0.14068413760190057,0.14977572074639453
154163.97614390546,154163.97614390546,0.13989380584928524,0.15043750613405935
154163.98114390546,154163.98114390546,0.13909432587553486,0.15108907031122717
154163.98614390547,154163.98614390547,0.13828586453375516,0.15173044086591467
154163.99114390547,154163.99114390547,0.137468948888384,0.15236206985840212
154163.99614390548,154163.99614390548,0.13664306869741985,0.316005867509603
154164.00114390548,154164.00114390548,0.13580813665443725,0.15359358929045944
154164.00614390548,154164.00614390548,0.13496532319065593,0.15419445147473398
154164.0111439055,154164.0111439055,0.1341135613740953,0.15478434288218146
154164.0161439055,154164.0161439055,0.13325370574959358,0.1553641527802309
154164.0211439055,154164.0211439055,0.132385341466107,0.155933197933731
154164.0261439055,154164.0261439055,0.13150877359825425,0.1564916959621744
154164.0311439055,154164.0311439055,0.13062397741816087,0.1570394436400317
154164.0361439055,154164.0361439055,0.12973111784975289,0.15757648480853675
154164.04114390552,154164.04114390552,0.12883032762581886,0.1581028244078857
154164.04614390552,154164.04614390552,0.12792167558249118,0.15861838352528354
154164.05114390553,154164.05114390553,0.1270050145224727,0.15912277423930532
154164.05614390553,154164.05614390553,0.12608101490752552,0.15961676644739636
154164.06114390554,154164.06114390554,0.12514926845709945,0.16009960127706369
154164.06614390554,154164.06614390554,0.12420988827300607,0.16057125015338536
154164.07114390554,154164.07114390554,0.12326325840558616,0.16103209813465766
154164.07614390555,154164.07614390555,0.12230921394730576,0.6139636928770393
154164.08114390555,154164.08114390555,0.1213479092056817,0.1619201287972903
154164.08614390556,154164.08614390556,0.12037956635290685,0.16234750752595378
154164.09114390556,154164.09114390556,0.11940406299656782,0.16276345583820123
154164.09614390557,154164.09614390557,0.3659344094244235,0.4438667689217326
154164.10114390557,154164.10114390557,0.11743226272218481,0.16356135354905443
154164.10614390558,154164.10614390558,0.11643649407401561,0.16394378698010542
154164.11114390558,154164.11114390558,0.11543392603638994,0.164314566116743
154164.1161439056,154164.1161439056,0.11442448007629501,0.16467332192262601
154164.1211439056,154164.1211439056,0.11340903858568811,0.16502140028414944
154164.1261439056,154164.1261439056,0.11238714647987535,0.3142956773472513
154164.1311439056,154164.1311439056,0.111358893314335,0.21553996247132493
154164.1361439056,154164.1361439056,0.11032468172032658,0.16599579593278682
154164.1411439056,154164.1411439056,0.10928432341331064,0.16629736937016826
154164.14614390561,154164.14614390561,0.10823801780626283,0.16658727434574686
154164.15114390562,154164.15114390562,0.10718598106131887,0.23493496018340676
154164.15614390562,154164.15614390562,0.10612814940687659,0.1671322995428115
154164.16114390563,154164.16114390563,0.1050646775730387,0.1673871191825521
154164.16614390563,154164.16614390563,0.10399556730217722,0.167629910097217
154164.17114390564,154164.17114390564,0.10292147544902364,0.16786184942237375
154164.17614390564,154164.17614390564,0.10184179412812132,0.16808135094813784
154164.18114390565,154164.18114390565,0.24195595327170236,0.1682887852513639
154164.18614390565,154164.18614390565,0.09966714195403818,0.16848526044884696
154164.19114390566,154164.19114390566,0.09857227024469187,0.1686693558514503
154164.19614390566,154164.19614390566,0.09747247024575152,0.16884140418908092
154164.20114390567,154164.20114390567,0.09636807357733383,0.16900194472822122
154164.20614390567,154164.20614390567,0.09525899642385456,0.16915047791282822
154164.21114390568,154164.21114390568,0.09414532444301008,0.16928691117740233
154164.21614390568,154164.21614390568,0.09302731770325703,0.16941163178343174
154164.22114390568,154164.22114390568,0.09190500864884542,0.16952441553416728
154164.2261439057,154164.2261439057,0.09077846266349036,0.16962511595004134
154164.2311439057,154164.2311439057,0.08964787374545688,0.1697139564034568
154164.2361439057,154164.2361439057,0.08851327015649395,0.16979067340915044
154164.2411439057,154164.2411439057,0.08737488089886915,0.1698556163245813
154164.2461439057,154164.2461439057,0.0862326924404597,0.1699083758442194
154164.2511439057,154164.2511439057,0.08508689115677238,0.16994917491232242
154164.25614390572,154164.25614390572,0.08393759027765398,0.16997800722426776
154164.26114390572,154164.26114390572,0.0827849501801277,0.1699950389795028
154164.26614390573,154164.26614390573,0.08162896985089192,0.16999984878193475
154164.27114390573,154164.27114390573,0.0804698259768792,0.16999265229940808
154164.27614390574,154164.27614390574,0.07930765188896813,0.16997352017284478
154164.28114390574,154164.28114390574,0.07814253581555626,0.3563213305727676
154164.28614390575,154164.28614390575,0.07697460647946092,0.1698991711806789
154164.29114390575,154164.29114390575,0.539989897909453,0.16984422861599033
154164.29614390575,154164.29614390575,0.07463075995700057,0.16977679162846726
154164.30114390576,154164.30114390576,0.07345515327168417,0.16969797447143256
154164.30614390576,154164.30614390576,0.07227716646542624,0.16960702883837434
154164.31114390577,154164.31114390577,0.07109690878382204,0.6119257909010629
154164.31614390577,154164.31614390577,0.06991457513416974,0.16938898747368364
154164.32114390578,154164.32114390578,0.06873024864571009,0.16926214316243812
154164.32614390578,154164.32614390578,0.06754402403915935,0.1691232102851619
154164.3311439058,154164.3311439058,0.06635608599287549,0.16897264602431267
154164.3361439058,154164.3361439058,0.6541790214806976,0.1688099534391938
154164.3411439058,154164.3411439058,0.24621041356775403,0.16863539827174
154164.3461439058,154164.3461439058,0.3375831843482972,0.16844880650971392
154164.3511439058,154164.3511439058,0.06158906955731502,0.16825092339251735
154164.3561439058,154164.3561439058,0.060394110213704645,0.5641392770414306
154164.36114390581,154164.36114390581,0.059198093864652766,0.16781856147699456
154164.36614390582,154164.36614390582,0.058001209930913566,0.16758524585775303
154164.37114390582,154164.37114390582,0.056803505421663236,0.3093971624571977
154164.37614390583,154164.37614390583,0.055605114873096204,0.16708275793054833
154164.38114390583,154164.38114390583,0.054406170786871315,0.16681405861056064
154164.38614390584,154164.38614390584,0.05320677374811768,0.16653332520359454
154164.39114390584,154164.39114390584,0.052007066454138176,0.16624128590960618
154164.39614390585,154164.39614390585,0.050807152278582665,0.16593709500645473
154164.40114390585,154164.40114390585,0.050392837060493495,0.16562207439246152
154164.40614390586,154164.40614390586,0.051592791223614765,0.1652952502888403
154164.41114390586,154164.41114390586,0.5781884183742143,0.1649566840653261
154164.41614390587,154164.41614390587,0.053992094948569845,0.1646066274973805
154164.42114390587,154164.42114390587,0.05519121494069729,0.21725706623884733
154164.42614390588,154164.42614390588,0.05638981207193653,0.16387248492411335
154164.43114390588,154164.43114390588,0.05758776667101076,0.16348819449102348
154164.43614390588,154164.43614390588,0.1698927361764704,0.16309259004861348
154164.4411439059,154164.4411439059,0.05998128045730201,0.16268565399313503
154164.4461439059,154164.4461439059,0.06117658019826983,0.1622672637544863
154164.4511439059,154164.4511439059,0.06237081902723296,0.1618382136881036
154164.4561439059,154164.4561439059,0.0635637662013174,0.16139746427191748
154164.4611439059,154164.4611439059,0.06475532562723069,0.6771850943238257
154164.4661439059,154164.4661439059,0.06594552610018532,0.16048304394870191
154164.47114390592,154164.47114390592,0.06713406528466949,0.6506448017909943
154164.47614390592,154164.47614390592,0.10849707879255838,0.15952430957688593
154164.48114390593,154164.48114390593,0.06950589642873181,0.15902854150478896
154164.48614390593,154164.48614390593,0.07068893518640414,0.15852179017389845
154164.49114390594,154164.49114390594,0.07186989946763782,0.15800416243782336
154164.49614390594,154164.49614390594,0.37003941665432094,0.15747580850802445
154164.50114390595,154164.50114390595,0.11542396127768534,0.15693676661373296
154164.50614390595,154164.50614390595,0.07539923674428323,0.4995663490513579
154164.51114390595,154164.51114390595,0.07657065755606529,0.15582602966426273
154164.51614390596,154164.51614390596,0.0777395912665272,0.15525528133914548
154164.52114390596,154164.52114390596,0.07890570426959333,0.15467381132536212
154164.52614390597,154164.52614390597,0.08006889092622482,0.15408174209663011
154164.53114390597,154164.53114390597,0.08122911673109039,0.2682973357115275
154164.53614390598,154164.53614390598,0.08238617516984834,0.1528666019986734
154164.54114390598,154164.54114390598,0.42989619525769174,0.15224347891140774
154164.546143906,154164.546143906,0.08469048042644961,0.15161023154594563
154164.551143906,154164.551143906,0.08583750298531574,0.15096681885213628
154164.556143906,154164.556143906,0.08698090521877912,0.15031320717529253
154164.561143906,154164.561143906,0.08812059199543507,0.14964952337682366
154164.566143906,154164.566143906,0.08925657003161741,0.14897614236655743
154164.571143906,154164.571143906,0.09038854510131897,0.1482926641431748
154164.57614390602,154164.57614390602,0.09151653319083318,0.14759948097659015
154164.58114390602,154164.58114390602,0.0926403292203268,0.14689644026347917
154164.58614390602,154164.58614390602,0.09375983698656419,0.14618365717192572
154164.59114390603,154164.59114390603,0.09487502784209824,0.14546138505603218
154164.59614390603,154164.59614390603,0.09598566788681301,0.14472943222969628
154164.60114390604,154164.60114390604,0.09709173852388311,0.1439880685551315
154164.60614390604,154164.60614390604,0.09819309906029437,0.6411542016908613
154164.61114390605,154164.61114390605,0.09928951554613391,0.14247698415767257
154164.61614390605,154164.61614390605,0.10038129564560072,0.14170796152725196
154164.62114390606,154164.62114390606,0.10146768668760885,0.14092913019604758
154164.62614390606,154164.62614390606,0.10254923625957464,0.14014175053372058
154164.63114390607,154164.63114390607,0.10362546517708957,0.13934523331862633
154164.63614390607,154164.63614390607,0.10469627302441839,0.1385396824255309
154164.64114390608,154164.64114390608,0.1057615934595067,0.13772525023661805
154164.64614390608,154164.64614390608,0.10682138842833243,0.136902124785535
154164.65114390609,154164.65114390609,0.1078754845307395,0.1360702822237164
154164.6561439061,154164.6561439061,0.10892373789386645,0.1352297518642077
154164.6611439061,154164.6611439061,0.10996613478075441,0.13438075241048625
154164.6661439061,154164.6661439061,0.1110025463893942,0.13352333118725612
154164.6711439061,154164.6711439061,0.11203288659639443,0.13265759577358058
154164.6761439061,154164.6761439061,0.11305700443080476,0.13178356783181325
154164.6811439061,154164.6811439061,0.11407477955571046,0.6395230770487319
154164.68614390612,154164.68614390612,0.11508615333521138,0.13001097892508917
154164.69114390612,154164.69114390612,0.11609104680649864,0.12911267789037373
154164.69614390613,154164.69614390613,0.11708930647497012,0.12820643589226852
154164.70114390613,154164.70114390613,0.11808094944122688,0.1272924797312424
154164.70614390614,154164.70614390614,0.11906567206240208,0.12637066525888208
154164.71114390614,154164.71114390614,0.1200435043013072,0.12544123299051707
154164.71614390615,154164.71614390615,0.1210143379825788,0.12450426393973223
154164.72114390615,154164.72114390615,0.1219781256881327,0.123559901831236
154164.72614390615,154164.72614390615,0.1229346277687297,0.12260809458543506
154164.73114390616,154164.73114390616,0.12388391682782862,0.12164910599150301
154164.73614390616,154164.73614390616,0.1248257873814612,0.29454792763857734
154164.74114390617,154164.74114390617,0.2928650803970833,0.11970963254730875
154164.74614390617,154164.74614390617,0.12668693700161637,0.11872940307004871
154164.75114390618,154164.75114390618,0.12760609025279046,0.11774231685017052
154164.75614390618,154164.75614390618,0.1285175190286115,0.11674848664506061
154164.7611439062,154164.7611439062,0.1294208354022653,0.11574776349999347
154164.7661439062,154164.7661439062,0.13031662694056553,0.11474081114411407
154164.7711439062,154164.7711439062,0.13120419983478898,0.11372722904574316
154164.7761439062,154164.7761439062,0.13208348716918186,0.11270714776717297
154164.7811439062,154164.7811439062,0.1329548121483392,0.1116809836621284
154164.7861439062,154164.7861439062,0.13381766897969447,0.1106485231713574
154164.79114390622,154164.79114390622,0.1346722924182248,0.10961010479258848
154164.79614390622,154164.79614390622,0.13551829276280025,0.10856561540754309
154164.80114390622,154164.80114390622,0.13635588142372934,0.10751536660977097
154164.80614390623,154164.80614390623,0.13718479326573899,0.10645933704034308
154164.81114390623,154164.81114390623,0.13800491518060853,0.10539761616216178
154164.81614390624,154164.81614390624,0.13881637621595105,0.10433044236148253
154164.82114390624,154164.82114390624,0.1396188306019114,0.10325775829576939
154164.82614390625,154164.82614390625,0.14041239079294401,0.12786522682444074
154164.83114390625,154164.83114390625,0.14119681624035235,0.10109654808218552
154164.83614390626,154164.83614390626,0.14197227629737752,0.10000828377240449
154164.84114390626,154164.84114390626,0.14273841349928754,0.09891494937314645
154164.84614390627,154164.84614390627,0.14349509678549238,0.09781663190619408
154164.85114390627,154164.85114390627,0.14424291204252312,0.09671377952434239
154164.85614390628,154164.85614390628,0.14498102503905494,0.09560611341125616
154164.86114390628,154164.86114390628,0.1457092546587838,0.4461728565335159
154164.86614390629,154164.86614390629,0.14642872758676145,0.09337723136477762
154164.8711439063,154164.8711439063,0.14713798073985201,0.31661036661120134
154164.8761439063,154164.8761439063,0.14783761404115292,0.09113089470368059
154164.8811439063,154164.8811439063,0.14852768554269466,0.09000161449267285
154164.8861439063,154164.8861439063,0.14920767819738562,0.08886824111210197
154164.8911439063,154164.8911439063,0.14987789098783905,0.19930262292789178
154164.8961439063,154164.8961439063,0.15053804332319518,0.08659003004494296
154164.90114390632,154164.90114390632,0.15118820232732183,0.08544538592804961
154164.90614390632,154164.90614390632,0.1518281995730232,0.0842971812393352
154164.91114390633,154164.91114390633,0.1524578603282699,0.08314549697456888
154164.91614390633,154164.91614390633,0.15307748567392995,0.08199056676769995
154164.92114390634,154164.92114390634,0.1536867806774753,0.08083242911779501
154164.92614390634,154164.92614390634,0.35536416111275726,0.07967111511456322
154164.93114390635,154164.93114390635,0.15487413355938848,0.07850699722633007
154164.93614390635,154164.93614390635,0.15545209826705828,0.07733994395836037
154164.94114390636,154164.94114390636,0.15601947553740078,0.07617014628072838
154164.94614390636,154164.94614390636,0.1565760882884358,0.07499769445907134
154164.95114390636,154164.95114390636,0.15712238616908578,0.07382282391451224
154164.95614390637,154164.95614390637,0.3090359863532339,0.07264552354863946
154164.96114390637,154164.96114390637,0.15818241839373434,0.07146596975865074
154164.96614390638,154164.96614390638,0.1586964195613194,0.07028430008266208
154164.97114390638,154164.97114390638,0.40194346582337853,0.06910056414641504
154164.9761439064,154164.9761439064,0.15969143212914205,0.23762988935562318
154164.9811439064,154164.9811439064,0.16017261982366676,0.06672751632669123
154164.9861439064,154164.9861439064,0.1606427209941153,0.06553841819212117
154164.9911439064,154164.9911439064,0.16110159901506058,0.06434774545278273
154164.9961439064,154164.9961439064,0.16154958809557682,0.06315566712071749
154165.0011439064,154165.0011439064,0.16198632177703426,0.06196226074806812
154165.00614390642,154165.00614390642,0.16241189161402453,0.06076766203588551
154165.01114390642,154165.01114390642,0.1628258787935248,0.059571957359479684
154165.01614390642,154165.01614390642,0.16322916379189645,0.058375345806920984
154165.02114390643,154165.02114390643,0.16362095785570988,0.05717788050268174
154165.02614390643,154165.02614390643,0.16400115593283268,0.055979683646393295
154165.03114390644,154165.03114390644,0.3137864733687925,0.05478090482463884
154165.03614390644,154165.03614390644,0.1647276095411435,0.05358163395381001
154165.04114390645,154165.04114390645,0.165073781407595,0.052382015018578705
154165.04614390645,154165.04614390645,0.16540835069900603,0.051182154159993824
154165.05114390646,154165.05114390646,0.16573139261650105,0.05008320100135968
154165.05614390646,154165.05614390646,0.1660426606344524,0.051217802386628736
154165.06114390647,154165.06114390647,0.16634164412827251,0.052417640216551147
154165.06614390647,154165.06614390647,0.1666304381554202,0.1867201737822914
154165.07114390648,154165.07114390648,0.16690727610090206,0.05481652702912695
154165.07614390648,154165.07614390648,0.16717206875680016,0.05601529631108344
154165.0811439065,154165.0811439065,0.16742522219760594,0.05721346819244776
154165.0861439065,154165.0861439065,0.16766663773682275,0.058410919959672944
154165.0911439065,154165.0911439065,0.16789611453274567,0.059607517521023085
154165.0961439065,154165.0961439065,0.16811378654192877,0.0608031508818109
154165.1011439065,154165.1011439065,0.16832003320613342,0.06199773928563203
154165.1061439065,154165.1061439065,0.16851414571062331,0.06319109979765468
154165.1111439065,154165.1111439065,0.16869643513356725,0.06438314315357804
154165.11614390652,154165.11614390652,0.4702597323693906,0.06557375975317013
154165.12114390652,154165.12114390652,0.16902551335735036,0.06676281272826631
154165.12614390653,154165.12614390653,0.16917219769844316,0.06795019195062313
154165.13114390653,154165.13114390653,0.16930678454675413,0.06913574797506367
154165.13614390654,154165.13614390654,0.16942964495672033,0.0703194220046947
154165.14114390654,154165.14114390654,0.1695405829638852,0.07150106868195918
154165.14614390655,154165.14614390655,0.16963952147767408,0.07268055811904546
154165.15114390655,154165.15114390655,0.16972638872541124,0.073857758608298
154165.15614390656,154165.15614390656,0.16980127486654206,0.07503256993359043
154165.16114390656,154165.16114390656,0.1698640237427388,0.07620484155015642
154165.16614390656,154165.16614390656,0.27025815206438075,0.07737463356390147
154165.17114390657,154165.17114390657,0.16995437992519272,0.07854158845479521
154165.17614390657,154165.17614390657,0.1699813248408883,0.07970568325158746
154165.18114390658,154165.18114390658,0.16999637015836938,0.08086683238650531
154165.18614390658,154165.18614390658,0.1699994562408179,0.0820249051480853
154165.1911439066,154165.1911439066,0.16999046626880004,0.08317975551117084
154165.1961439066,154165.1961439066,0.1699695490338505,0.1831293052618967
154165.2011439066,154165.2011439066,0.16993656449714162,0.08547940818149609
154165.2061439066,154165.2061439066,0.16989162300044505,0.08662397107134252
154165.2111439066,154165.2111439066,0.16983431640671082,0.08776475330048478
154165.2161439066,154165.2161439066,0.1697655547444179,0.08890192413987218
154165.22114390662,154165.22114390662,0.16968481296519497,0.09003520661624863
154165.22614390662,154165.22614390662,0.16959197434806392,0.09116444482589989
154165.23114390663,154165.23114390663,0.16948714854505564,0.09228955743396126
154165.23614390663,154165.23614390663,0.16937031457040552,0.09341041958969301
154165.24114390663,154165.24114390663,0.16924161342190433,0.09452696602270257
154165.24614390664,154165.24614390664,0.35985705561973247,0.09563906087498884
154165.25114390664,154165.25114390664,0.16894840420639812,0.0967465717293455
154165.25614390665,154165.25614390665,0.16878384388816303,0.09784937533552043
154165.26114390665,154165.26114390665,0.16860722711793402,0.3032685582187312
154165.26614390666,154165.26614390666,0.16841934034656347,0.4405472708755944
154165.27114390666,154165.27114390666,0.16821940962466106,0.2986802968039912
154165.27614390667,154165.27614390667,0.16800725787894555,0.10221173688021494
154165.28114390667,154165.28114390667,0.16778387991771915,0.10328968926904572
154165.28614390668,154165.28614390668,0.16754847553902613,0.10436220353551351
154165.29114390668,154165.29114390668,0.19370678067899597,0.1054292333548881
154165.2961439067,154165.2961439067,0.38120883960569685,0.10649075479918446
154165.3011439067,154165.3011439067,0.1667716651751767,0.10754662342003336
154165.3061439067,154165.3061439067,0.16648930267546214,0.30986331663016625
154165.3111439067,154165.3111439067,0.16619554773568437,0.1096410657573936
154165.3161439067,154165.3161439067,0.16588998801311056,0.11067936531802629
154165.3211439067,154165.3211439067,0.16557274092815144,0.11171154459787062
154165.3261439067,154165.3261439067,0.16524384609686238,0.11273750141030267
154165.33114390672,154165.33114390672,0.16490377255293137,0.1137573726507005
154165.33614390672,154165.33614390672,0.1645520217857557,0.11477076603556602
154165.34114390673,154165.34114390673,0.16418896175907433,0.11577776586652663
154165.34614390673,154165.34614390673,0.1638142962105582,0.1167780811180165
154165.35114390674,154165.35114390674,0.16342828942835896,0.11777174112015472
154165.35614390674,154165.35614390674,0.16303078024496004,0.11875852646104139
154165.36114390675,154165.36114390675,0.1626223844941773,0.1197386899121297
154165.36614390675,154165.36614390675,0.162202369416928,0.1207116596469781
154165.37114390676,154165.37114390676,0.16177133604750188,0.31937147136011645
154165.37614390676,154165.37614390676,0.1613288540829924,0.1226363673526509
154165.38114390676,154165.38114390676,0.79579193781807,0.12358807842756918
154165.38614390677,154165.38614390677,0.16041115629884561,0.12453225060301634
154165.39114390677,154165.39114390677,0.1808413106545158,0.12546901429160356
154165.39614390678,154165.39614390678,0.15944898464851223,0.12639811585512103
154165.40114390678,154165.40114390678,0.1589515850314517,0.12731972469638336
154165.4061439068,154165.4061439068,0.1584431772553546,0.12823352224260592
154165.4111439068,154165.4111439068,0.1579239183578891,0.12913949066554134
154165.4161439068,154165.4161439068,0.1573938652126151,0.13003754319176944
154165.4211439068,154165.4211439068,0.15685314527776326,0.13092764606306825
154165.4261439068,154165.4261439068,0.15630147310615203,0.13180945210629968
154165.4311439068,154165.4311439068,0.1557396894752575,0.13268347640076264
154165.43614390682,154165.43614390682,0.15516695207253145,0.1335489382780357
154165.44114390682,154165.44114390682,0.15458379413104312,0.13440612075318
154165.44614390683,154165.44614390683,0.15399013092798922,0.13525482443232623
154165.45114390683,154165.45114390683,0.15338621543672631,0.13609512357395215
154165.45614390683,154165.45614390683,0.15277164652964131,0.13692654978578708
154165.46114390684,154165.46114390684,0.15214717039218725,0.13774959580641077
154165.46614390684,154165.46614390684,0.24258710126881838,0.13856372921636012
154165.47114390685,154165.47114390685,0.15086728979846253,0.1393689864258296
154165.47614390685,154165.47614390685,0.15021179884782662,0.1401649665812552
154165.48114390686,154165.48114390686,0.1495471286937663,0.1409526888782378
154165.48614390686,154165.48614390686,0.16783168792259195,0.14173095056139026
154165.49114390687,154165.49114390687,0.14818693366957647,0.14249980947117907
154165.49614390687,154165.49614390687,0.1474923471297846,0.14325979158884047
154165.50114390688,154165.50114390688,0.14678774350984564,0.14401019256913422
154165.50614390688,154165.50614390688,0.14607354555066623,0.14475127351404624
154165.5111439069,154165.5111439069,0.14534953491146638,0.14548267441454765
154165.5161439069,154165.5161439069,0.14461629442052448,0.3864357650444021
154165.5211439069,154165.5211439069,0.14387366880725885,0.1469174467667852
154165.5261439069,154165.5261439069,0.14312123823680686,0.14761993989869374
154165.5311439069,154165.5311439069,0.14235990993817488,0.14831310544865486
154165.5361439069,154165.5361439069,0.14158910011739664,0.14899617954197675
154165.5411439069,154165.5411439069,0.14080924996702235,0.14966948125215052
154165.54614390692,154165.54614390692,0.14002026459095823,0.15033275785019343
154165.55114390692,154165.55114390692,0.13922235254770526,0.15098608604122288
154165.55614390693,154165.55614390693,0.3064800916102276,0.1516291189239567
154165.56114390693,154165.56114390693,0.1375995528654322,0.1522620515535549
154165.56614390694,154165.56614390694,0.13677515577202176,0.368617134894162
154165.57114390694,154165.57114390694,0.13594197058355814,0.15349741062495814
154165.57614390695,154165.57614390695,0.1350998187511867,0.15409907529655134
154165.58114390695,154165.58114390695,0.13424996990976887,0.15469132686208725
154165.58614390696,154165.58614390696,0.13339116297462145,0.15527245300542045
154165.59114390696,154165.59114390696,0.13252396785823264,0.15584298469879646
154165.59614390697,154165.59614390697,0.13164887240371645,0.1564033854340358
154165.60114390697,154165.60114390697,0.13076531772368516,0.15695276428338847
154165.60614390697,154165.60614390697,0.12987386097649242,0.15749167917301862
154165.61114390698,154165.61114390698,0.12897431995109565,0.1580197159062313
154165.61614390698,154165.61614390698,0.12806691106824866,0.15853699179874625
154165.621143907,154165.621143907,0.12715171996481855,0.15904344907138027
154165.626143907,154165.626143907,0.18536571302497304,0.15953872804797128
154165.631143907,154165.631143907,0.12529817042112437,0.1600234407836069
154165.636143907,154165.636143907,0.4827861315923887,0.16049689664156402
154165.641143907,154165.641143907,0.12341446820692861,0.16095937028809115
154165.646143907,154165.646143907,0.12246160260673486,0.16141078097066616
154165.65114390702,154165.65114390702,0.12150145265821193,0.16185099172708195
154165.65614390702,154165.65614390702,0.12053424739676438,0.16228016660863337
154165.66114390703,154165.66114390703,0.11955973409127513,0.4628308482263702
154165.66614390703,154165.66614390703,0.11857865686820052,0.16310461002947937
154165.67114390704,154165.67114390704,0.11759040917992468,0.7755123971898515
154165.67614390704,154165.67614390704,0.11659542793017294,0.16388346007164126
154165.68114390704,154165.68114390704,0.1155939851690593,0.16425618142734968
154165.68614390705,154165.68614390705,0.11458585676826767,0.1646172597412857
154165.69114390705,154165.69114390705,0.11357127372839089,0.1649668833147151
154165.69614390706,154165.69614390706,0.11255030366220686,0.16530495545710785
154165.70114390706,154165.70114390706,0.11152317020856807,0.1656316655629771
154165.70614390707,154165.70614390707,0.11048986428631359,0.1659467787679833
154165.71114390707,154165.71114390707,0.1094503570045396,0.166250002774837
154165.71614390708,154165.71614390708,0.10840510467668603,0.16654199083862858
154165.72114390708,154165.72114390708,0.10735390497613036,0.16682211442968045
154165.7261439071,154165.7261439071,0.1062967416161622,0.16709007995604305
154165.7311439071,154165.7311439071,0.10523442164240249,0.16734731809709283
154165.7361439071,154165.7361439071,0.10416631938811832,0.16759228113950442
154165.7411439071,154165.7411439071,0.45477614065422134,0.16782534856426398
154165.7461439071,154165.7461439071,0.102014091145201,0.16804716356636687
154165.7511439071,154165.7511439071,0.10093013386811114,0.16825694217616585
154165.7561439071,154165.7561439071,0.0998410659840465,0.16845485754931727
154165.76114390712,154165.76114390712,0.09874697776778416,0.16864084160230391
154165.76614390712,154165.76614390712,0.09764803059203066,0.4678358172903492
154165.77114390713,154165.77114390713,0.09654424683868777,0.16897709040673647
154165.77614390713,154165.77614390713,0.09543567792010982,0.16912693343835766
154165.78114390714,154165.78114390714,0.09432304874692626,0.1692661343051171
154165.78614390714,154165.78614390714,0.09320570222488554,0.16939266119063026
154165.79114390715,154165.79114390715,0.09208394721630571,0.16950699719114845
154165.79614390715,154165.79614390715,0.0909581339558721,0.2718266867393376
154165.80114390716,154165.80114390716,0.0898281914930488,0.16970056611649853
154165.80614390716,154165.80614390716,0.08869422944264994,0.16977924424633656
154165.81114390717,154165.81114390717,0.08755644616555232,0.16984609563909364
154165.81614390717,154165.81614390717,0.44686272446310404,0.16990077922089222
154165.82114390717,154165.82114390717,0.08526959874180559,0.16994342424542716
154165.82614390718,154165.82614390718,0.08412078689027717,0.5832097273657325
154165.83114390718,154165.83114390718,0.08296875351534348,0.16999314891861533
154165.8361439072,154165.8361439072,0.08181329056979032,0.16999988140161265
154165.8411439072,154165.8411439072,0.08065467253910294,0.169994713579882
154165.8461439072,154165.8461439072,0.07949292083869698,0.16997727298372292
154165.8511439072,154165.8511439072,0.07832829406336218,0.16994813095938882
154165.8561439072,154165.8561439072,0.07716081964033776,0.16990693542653612
154165.8611439072,154165.8611439072,0.0759906402430093,0.16985380226821672
154165.86614390722,154165.86614390722,0.0748178379509282,0.169788573943934
154165.87114390722,154165.87114390722,0.07364257589227627,0.16971147576066395
154165.87614390723,154165.87614390723,0.07246484651237253,0.16962186330134232
154165.88114390723,154165.88114390723,0.07128505657537225,0.16952128443077286
154165.88614390724,154165.88614390724,0.07010301232818728,0.16940806477188983
154165.89114390724,154165.89114390724,0.5955091499257253,0.16928321578245836
154165.89614390724,154165.89614390724,0.06773308742130342,0.2621632836860656
154165.90114390725,154165.90114390725,0.06654539234338715,0.16899739800279345
154165.90614390725,154165.90614390725,0.06535605235962212,0.16883670388205235
