timestamp,sample_timestamp,unityTimestamp,localTimestamp,emg1,emg2,rms1,rms2,left_processed,right_processed
88057.0002523,88057.0002523,88057.0002523,88057.0002523,0.16958158151612446,0.1680667248390784,0.16958158151612446,0.1680667248390784,0.4067257950766737,0.20307750764650645
88057.0052523,88057.0052523,88057.0052523,88057.0052523,0.169475436525018,0.16784624353936248,0.16952851732799318,0.1679565203682332,0.40619718775419283,0.20204448408290218
88057.01025230001,88057.01025230001,88057.01025230001,88057.01025230001,0.1693573597630008,0.1676139932499807,0.16947148401304357,0.16784242233080213,0.4056290413456746,0.20097496339718648
88057.01525230001,88057.01525230001,88057.01525230001,88057.01525230001,0.1692274446284057,0.7129539383835052,0.1694105071241229,0.38497290633827885,0.405021610399858,1.0
88057.02025230002,88057.02025230002,88057.02025230002,88057.02025230002,0.1999413113684759,0.16711441100381816,0.17594101721199398,0.3523474934842926,0.47007632193984633,1.0
88057.02525230002,88057.02525230002,88057.02525230002,88057.02525230002,0.16893167949142568,0.16684688248354193,0.17479231486907998,0.3287809967688205,0.45863334144397816,1.0
88057.03025230003,88057.03025230003,88057.03025230003,88057.03025230003,0.16876604933526948,0.1665678426778857,0.17394420264309068,0.31083447805456105,0.4501847370512304,1.0
88057.03525230003,88057.03525230003,88057.03525230003,88057.03525230003,0.16858847778291663,0.16627708240767416,0.17328378973274777,0.29664258320539727,0.443605929147781,1.0
88057.04025230004,88057.04025230004,88057.04025230004,88057.04025230004,0.16839895829280996,0.1659746071609826,0.17274785202949822,0.2850968933905358,0.4382671007531878,1.0
88057.04525230004,88057.04525230004,88057.04525230004,88057.04525230004,0.1681978080913569,0.16566073930780284,0.17229825480079178,0.2754933081104546,0.43378836668354787,1.0
88057.05025230005,88057.05025230005,88057.05025230005,88057.05025230005,0.16798464896911894,0.16533512023919752,0.17191058150394345,0.267361065044824,0.4299264976780831,1.0
88057.05525230005,88057.05525230005,88057.05525230005,88057.05525230005,0.16775974584232242,0.16499802096140698,0.17156851417833643,0.2603724379041987,0.4265189397851783,1.0
88057.06025230006,88057.06025230006,88057.06025230006,88057.06025230006,0.16752310539026227,0.1646494596107073,0.17126072151231456,0.25429164383140374,0.4234528143473865,1.0
88057.06525230006,88057.06525230006,88057.06525230006,88057.06525230006,0.16727446188434078,0.16428918887813426,0.1709790708007932,0.24894435109283283,0.4206471061337073,0.9612000506589972
88057.07025230007,88057.07025230007,88057.07025230007,88057.07025230007,0.16701455082004543,0.1639179374268317,0.1707176337918374,0.2441987099863155,0.4180427599226688,0.9167158382686696
88057.07525230007,88057.07525230007,88057.07525230007,88057.07525230007,0.35304085195609003,0.16353498970886413,0.1873842143268311,0.2399529696424629,0.584069544120694,0.8769175452728633
88057.08025230007,88057.08025230007,88057.08025230007,88057.08025230007,0.2553599221530948,0.1631407288251205,0.19336757056100842,0.23974039548635268,0.6436736958053119,0.8749249390692219
88057.08525230008,88057.08525230008,88057.08525230008,88057.08525230008,0.16616401999391278,0.1627353054395776,0.19318786767513657,0.23952005837370413,0.6418835570189084,0.8728595652458476
88057.09025230008,88057.09025230008,88057.09025230008,88057.09025230008,0.16585718400898394,0.16231844170935755,0.19299798017909292,0.23929199730653758,0.6399919626236845,0.8707217893959485
88057.09525230009,88057.09525230009,88057.09525230009,88057.09525230009,0.1655387361675056,0.16189032091714586,0.19279793029358283,0.16471105711012113,0.6379991339747192,0.17162248763639662
88057.1002523001,88057.1002523001,88057.1002523001,88057.1002523001,0.6053043295511884,0.16145111665735465,0.23994185157417508,0.1643576424398351,1.0,0.16830968481334493
88057.1052523001,88057.1052523001,88057.1052523001,88057.1052523001,0.3875252147120152,0.16100072761399953,0.2552928898700587,0.16399281732591434,1.0,0.16488992392356983
88057.1102523001,88057.1102523001,88057.1102523001,88057.1102523001,0.1645145439003193,0.16053933163516299,0.2551193849991841,0.16361661302786298,1.0,0.16136349798426153
88057.11525230011,88057.11525230011,88057.11525230011,88057.11525230011,0.1641500871496362,0.41269603361615553,0.25493842221062213,0.18891074032592908,1.0,0.3984630395846353
88057.12025230011,88057.12025230011,88057.12025230011,88057.12025230011,0.1637742924866901,0.15958318983343014,0.2547500485320458,0.18856622000358056,1.0,0.39523360970400473
88057.12525230012,88057.12525230012,88057.12525230012,88057.12525230012,0.16338705785233978,0.4926042314209047,0.2545542947560724,0.22137792311576493,1.0,0.7028006459314723
88057.13025230012,88057.13025230012,88057.13025230012,88057.13025230012,0.16298863879501307,0.3727094922984223,0.2543512185132935,0.2366045779821301,1.0,0.8455307289416226
88057.13525230013,88057.13525230013,88057.13525230013,88057.13525230013,0.16257877438655846,0.15806700312225375,0.2541408570191821,0.23630865035326412,1.0,0.8427567923545171
88057.14025230013,88057.14025230013,88057.14025230013,88057.14025230013,0.19320308421680485,0.15753998889787393,0.2552773790671628,0.23600554220986317,1.0,0.8399155477838376
88057.14525230014,88057.14525230014,88057.14525230014,88057.14525230014,0.16172531888080155,0.1570020103650721,0.255053790574508,0.23569532093053724,1.0,0.8370076268164088
88057.15025230014,88057.15025230014,88057.15025230014,88057.15025230014,0.1612820292359914,0.790162929957494,0.25482310164990657,0.3047873146357071,1.0,1.0
88057.15525230014,88057.15525230014,88057.15525230014,88057.15525230014,0.1608273788813996,0.15589441367903126,0.24240779339777282,0.30453697332618523,1.0,1.0
88057.16025230015,88057.16025230015,88057.16025230015,88057.16025230015,0.16036165597280688,0.1553246018009415,0.2372619575047725,0.30428144090687326,1.0,1.0
88057.16525230015,88057.16525230015,88057.16525230015,88057.16525230015,0.46409178010452723,0.15474428883624036,0.26082351342478627,0.30402077846102166,1.0,1.0
88057.17025230016,88057.17025230016,88057.17025230016,88057.17025230016,0.15939720928885331,0.15415349612927207,0.26057164889499196,0.30375505794416957,1.0,1.0
88057.17525230016,88057.17525230016,88057.17525230016,88057.17525230016,0.15889864615504332,0.15355238036164617,0.2603131592312961,0.30348435103135096,1.0,1.0
88057.18025230017,88057.18025230017,88057.18025230017,88057.18025230017,0.15838920250519767,0.15294091807463753,0.21547924232981075,0.30320872374553415,0.8639426195541567,1.0
88057.18525230017,88057.18525230017,88057.18525230017,88057.18525230017,0.1578687352929689,0.44312333093656153,0.19647639927384994,0.32029337475726904,0.674642785879418,1.0
88057.19025230018,88057.19025230018,88057.19025230018,88057.19025230018,0.15733760452188958,0.1516869397897556,0.1961086583675988,0.3200235914463302,0.6709794765428236,1.0
88057.19525230018,88057.19525230018,88057.19525230018,88057.19525230018,0.15679552616118794,0.15104452216053682,0.19573216395446544,0.30528040561378983,0.6672289677597045,1.0
88057.20025230019,88057.20025230019,88057.20025230019,88057.20025230019,0.15624324623930647,0.15039245225531417,0.19534700106743458,0.30498863831763007,0.6633921065996187,1.0
88057.20525230019,88057.20525230019,88057.20525230019,88057.20525230019,0.15567994969729265,0.14972997218317888,0.19495322023512976,0.2815192320030807,0.6594693964114597,1.0
88057.2102523002,88057.2102523002,88057.2102523002,88057.2102523002,0.15510625330396458,0.1490576778334447,0.1945508903086951,0.26825303743310874,0.6554615230668152,1.0
88057.2152523002,88057.2152523002,88057.2152523002,88057.2152523002,0.1545219267476706,0.14837536506855353,0.19414008323296988,0.2679068337310329,0.6513692032556069,1.0
88057.2202523002,88057.2202523002,88057.2202523002,88057.2202523002,0.15392724419147466,0.1476833053302735,0.19193294978923753,0.2675556782624798,0.6293824935529537,1.0
88057.22525230021,88057.22525230021,88057.22525230021,88057.22525230021,0.15332215499996923,0.1469814641093988,0.1915014229522044,0.26719966493488045,0.6250837705547162,1.0
88057.23025230021,88057.23025230021,88057.23025230021,88057.23025230021,0.15270675578471826,0.15277526361086427,0.19106153789278857,0.1839350089626353,0.6207017857991615,0.3518220303313229
88057.23525230022,88057.23525230022,88057.23525230022,88057.23525230022,0.15208094838796776,0.145548671053695,0.19061337657284874,0.18340439399427622,0.6162373557623386,0.3468482052105072
88057.24025230022,88057.24025230022,88057.24025230022,88057.24025230022,0.1514450112832892,0.2630593499452641,0.19015702064220127,0.19093016351724115,0.6116912938118376,0.4173925051999152
88057.24525230023,88057.24525230023,88057.24525230023,88057.24525230023,0.15079874260379805,0.14407750309967715,0.15530497424474904,0.19040774823775075,0.2645071084331931,0.41249554149634143
88057.25025230023,88057.25025230023,88057.25025230023,88057.25025230023,0.15014284421831386,0.1433281032919929,0.1547274950807639,0.18987848322149575,0.25875445819180065,0.40753437042052537
88057.25525230024,88057.25525230024,88057.25525230024,88057.25525230024,0.14947667830053815,0.1425691343154894,0.1541395596021147,0.18934245409981915,0.25289764571421414,0.40250979465492104
88057.26025230024,88057.26025230024,88057.26025230024,88057.26025230024,0.18944294383932125,0.14180090667529965,0.1563140970229528,0.18879976355670744,0.2745596449672692,0.3974227767283337
88057.26525230025,88057.26525230025,88057.26525230025,88057.26525230025,0.1481145324106898,0.14102346663567356,0.15571627403266441,0.15689465877355568,0.2686043364749946,0.09835392056046177
88057.27025230025,88057.27025230025,88057.27025230025,88057.27025230025,0.14741872084317076,0.14023695241147263,0.15510844702904714,0.1562274820465345,0.2625493714179805,0.0921000065875035
88057.27525230026,88057.27525230026,88057.27525230026,88057.27525230026,0.146713305411081,0.13944154216967747,0.15449070408860466,0.15555182302723852,0.25639562718428155,0.08576658215797268
88057.28025230026,88057.28025230026,88057.28025230026,88057.28025230026,0.14599796942212345,0.1386369572779154,0.15386306766827437,0.15486773198875808,0.2501433274822397,0.07935411851669748
88057.28525230027,88057.28525230027,88057.28525230027,88057.28525230027,0.14527315387882872,0.21019526167792305,0.15322563835256608,0.15919862084110212,0.24379347430039539,0.11995056802106321
88057.29025230027,88057.29025230027,88057.29025230027,88057.29025230027,0.14453890561450908,0.1370015872199334,0.15257848091209247,0.15852019934834524,0.237346712861475,0.11359124899617656
88057.29525230028,88057.29525230028,88057.29525230028,88057.29525230028,0.14379511862794225,0.13617077616457485,0.15192166889849845,0.15783410771777556,0.23080377586184972,0.10716003240637308
88057.30025230028,88057.30025230028,88057.30025230028,88057.30025230028,0.14304190040285242,0.13533130058025436,0.15125526529284805,0.1571404410051186,0.22416529069737343,0.10065780927543387
88057.30525230028,88057.30525230028,88057.30525230028,88057.30525230028,0.14227941257632937,0.13448332365202023,0.150579346295024,0.15643930626949268,0.2174320164452582,0.0940855831433343
88057.31025230029,88057.31025230029,88057.31025230029,88057.31025230029,0.1415076875644459,0.13362688999430453,0.14989398438307394,0.15533994361067094,0.21060467510706554,0.08378048823384787
88057.3152523003,88057.3152523003,88057.3152523003,88057.3152523003,0.14072682824247607,0.13276210872116223,0.14919926486756208,0.1546223890567873,0.20368411651750548,0.07705434766397416
88057.3202523003,88057.3202523003,88057.3202523003,88057.3202523003,0.15829974066058256,0.1318891335152918,0.1496433148028478,0.14377148819999164,0.20810759034430723,0.0
88057.3252523003,88057.3252523003,88057.3252523003,88057.3252523003,0.13913801231558978,0.13100784287040984,0.1489356136773526,0.14298788871394974,0.20105771338888823,0.0
88057.33025230031,88057.33025230031,88057.33025230031,88057.33025230031,0.22321927149824625,0.13011847530313625,0.15455440826805877,0.1421962669877225,0.2570302264671119,0.0
88057.33525230031,88057.33525230031,88057.33525230031,88057.33525230031,0.13751348765880858,0.6189189562680779,0.15385864530750365,0.20710069560065422,0.2500992734343332,0.5689702093535791
88057.34025230032,88057.34025230032,88057.34025230032,88057.34025230032,0.13668810843198625,0.12831588438340266,0.15032355391578894,0.2065503326890862,0.21488390010804126,0.5638112729526936
88057.34525230032,88057.34525230032,88057.34525230032,88057.34525230032,0.13585405491104457,0.8782487190827328,0.14959803293210977,0.29937871431642327,0.2076565078102914,1.0
88057.35025230033,88057.35025230033,88057.35025230033,88057.35025230033,0.13501129688323393,0.4946922099341649,0.14886422386388745,0.32201473307909023,0.20034655244443225,1.0
88057.35525230033,88057.35525230033,88057.35525230033,88057.35525230033,0.13416012641664912,0.1255533885710426,0.14812221724834354,0.32165738010526984,0.19295493591134943,1.0
88057.36025230034,88057.36025230034,88057.36025230034,88057.36025230034,0.1333006001209839,0.12461739385122757,0.14737212736773678,0.3212986161410023,0.18548279665188083,1.0
88057.36525230034,88057.36525230034,88057.36525230034,88057.36525230034,0.13243258679659317,0.12367379682409978,0.14661403488539523,0.31847664472208637,0.17793093820655684,1.0
88057.37025230034,88057.37025230034,88057.37025230034,88057.37025230034,0.13155648293459302,0.12272296897630895,0.14584804090471487,0.3181125453307158,0.1703003677328845,1.0
88057.37525230035,88057.37525230035,88057.37525230035,88057.37525230035,0.13067218520714355,0.12176483459806332,0.14507424832165255,0.3177473110244226,0.16259211024525055,1.0
88057.38025230035,88057.38025230035,88057.38025230035,88057.38025230035,0.48882338434431866,0.12079944492228266,0.1862847142528833,0.31738104105995435,0.573116699827303,1.0
88057.38525230036,88057.38525230036,88057.38525230036,88057.38525230036,0.12887945272809911,0.11982711082518174,0.18567417670493436,0.31701383800011623,0.5670347332532191,1.0
88057.39025230036,88057.39025230036,88057.39025230036,88057.39025230036,0.6310742798511311,0.11884767723790883,0.24106906678515777,0.3166457997897966,1.0,1.0
88057.39525230037,88057.39525230037,88057.39525230037,88057.39525230037,0.12705514675634327,0.6086092650287703,0.240594016122175,0.34973315366496655,1.0,1.0
88057.40025230037,88057.40025230037,88057.40025230037,88057.40025230037,0.126131304471035,0.11686829657938026,0.23940264038528214,0.3493991195220948,1.0,1.0
88057.40525230038,88057.40525230038,88057.40525230038,88057.40525230038,0.12519992790855933,0.11586853888703465,0.23892122434134683,0.3490646769381804,1.0,1.0
88057.41025230038,88057.41025230038,88057.41025230038,88057.41025230038,0.12426114045099705,0.11486228969770483,0.23438051472315613,0.3487299193999102,1.0,1.0
88057.41525230039,88057.41525230039,88057.41525230039,88057.41525230039,0.12331476134765043,0.11384940960704437,0.2338862145879386,0.31381741512727107,1.0,1.0
88057.42025230039,88057.42025230039,88057.42025230039,88057.42025230039,0.12236114333478255,0.11283022526459613,0.23338980167306544,0.31344533157142773,1.0,1.0
88057.4252523004,88057.4252523004,88057.4252523004,88057.4252523004,0.1214002260924093,0.11180470315121203,0.23289140214102474,0.22543667254062533,1.0,0.7408461422937348
88057.4302523004,88057.4302523004,88057.4302523004,88057.4302523004,0.17227377582016862,0.11077305066866906,0.23442278667621097,0.19050875626265873,1.0,0.41344236034173687
88057.4352523004,88057.4352523004,88057.4352523004,88057.4352523004,0.11945713454965386,0.10973527815786549,0.23392516886861062,0.1898972678342547,1.0,0.4077104517306968
88057.44025230041,88057.44025230041,88057.44025230041,88057.44025230041,0.11847513469711192,0.10869156484388358,0.23342598688238048,0.18928482485274917,1.0,0.4019695954259833
88057.44525230041,88057.44525230041,88057.44525230041,88057.44525230041,0.3562865958718427,0.10764199868127489,0.24763945692080766,0.18867159142472034,1.0,0.3962213297133024
88057.45025230042,88057.45025230042,88057.45025230042,88057.45025230042,0.1164906596331497,0.10658660858334566,0.2471674249830678,0.18805771863093074,1.0,0.39046707077828136
88057.45525230042,88057.45525230042,88057.45525230042,88057.45525230042,0.11548836925870416,0.10552556474121877,0.24669441103967477,0.18744336785679835,1.0,0.38470833139928884
88057.46025230043,88057.46025230043,88057.46025230043,88057.46025230043,0.11447964138848933,0.21011410467996172,0.21620120926783626,0.19230764570537665,0.871134607662695,0.4303046089274305
88057.46525230043,88057.46525230043,88057.46525230043,88057.46525230043,0.11361207896758119,0.1033870740512835,0.21566542336653047,0.19171040010587748,0.8657972914672302,0.4247062083107419
88057.47025230044,88057.47025230044,88057.47025230044,88057.47025230044,0.4051552547510303,0.10230970232403151,0.17854992844030101,0.19111327546524529,0.4960654047384733,0.4191089415260916
88057.47525230044,88057.47525230044,88057.47525230044,88057.47525230044,0.11141487106267796,0.10122705208942043,0.17789594822416963,0.1183823845481059,0.48955067713820466,0.0
88057.48025230045,88057.48025230045,88057.48025230045,88057.48025230045,0.11038093449619901,0.10013938692923192,0.17724036275738525,0.11742016479557674,0.4830199585790715,0.0
88057.48525230045,88057.48525230045,88057.48525230045,88057.48525230045,0.10934091265194942,0.09904666845444338,0.176583328820483,0.11645402682980593,0.47647481085522914,0.0
88057.49025230046,88057.49025230046,88057.49025230046,88057.49025230046,0.14283580199475038,0.09794907401303678,0.17745914804231464,0.11548412264881006,0.48519942287952633,0.0
88057.49525230046,88057.49525230046,88057.49525230046,88057.49525230046,0.1072431651606293,0.09684662231152101,0.17680542866557936,0.11451061673724959,0.4786872936722536,0.0
88057.50025230047,88057.50025230047,88057.50025230047,88057.50025230047,0.10618568828855375,0.09573954640782552,0.17615080625153035,0.11353366861361021,0.4721661687156191,0.0
88057.50525230047,88057.50525230047,88057.50525230047,88057.50525230047,0.10512252055993085,0.09462783772731388,0.17549544761236185,0.11255344246402939,0.4656377097357412,0.0
88057.51025230048,88057.51025230048,88057.51025230048,88057.51025230048,0.10405393632653144,0.09351174368814574,0.17210596335403375,0.11157010576908895,0.4318728249521777,0.0
88057.51525230048,88057.51525230048,88057.51525230048,88057.51525230048,0.10297985303066448,0.7040938549920015,0.17143917381387108,0.20659025590924004,0.4252304952398743,0.5641855012107451
88057.52025230048,88057.52025230048,88057.52025230048,88057.52025230048,0.10190050325993426,0.09126648858571472,0.1707720703362475,0.2060625295051357,0.4185850381897845,0.5592387526224623
88057.52525230049,88057.52525230049,88057.52525230049,88057.52525230049,0.10081595656975932,0.09013762216828981,0.14786677255471858,0.20553683491453129,0.19041028309945712,0.5543110496428211
88057.5302523005,88057.5302523005,88057.5302523005,88057.5302523005,0.09972637586487698,0.08900477944745265,0.14709873280244432,0.20501332178393356,0.1827593333477303,0.5494037950131668
88057.5352523005,88057.5352523005,88057.5352523005,88057.5352523005,0.09863177193017592,0.08786799648405483,0.14632994782199618,0.20449213519935977,0.1751009598874065,0.544518348726188
88057.5402523005,88057.5402523005,88057.5402523005,88057.5402523005,0.09753230066163504,0.0867274236658818,0.14556060152332698,0.1988162221067095,0.16743699476663618,0.4913140465349108
88057.54525230051,88057.54525230051,88057.54525230051,88057.54525230051,0.09642809704476481,0.08558319434241995,0.14478365171559923,0.1982866988159944,0.15969728608497408,0.48635045447198677
88057.55025230051,88057.55025230051,88057.55025230051,88057.55025230051,0.09531929999768998,0.08443544422116102,0.10616375363246053,0.19775994094619978,0.0,0.48141278463301823
88057.55525230052,88057.55525230052,88057.55525230052,88057.55525230052,0.0942058785145244,0.0832841802300884,0.10511700487377167,0.19723609686277552,0.0,0.47650242775110846
88057.56025230052,88057.56025230052,88057.56025230052,88057.56025230052,0.09308806367438668,0.08212960869714064,0.10406572211723739,0.19671531179295268,0.0,0.4716207451426417
88057.56525230053,88057.56525230053,88057.56525230053,88057.56525230053,0.1749952218400593,0.08097184473538324,0.10952815985050472,0.19619773498448959,0.0,0.4667691358112153
88057.57025230053,88057.57025230053,88057.57025230053,88057.57025230053,0.09083966813780818,0.07981097856102774,0.10600485359752018,0.19568351211324012,0.0,0.4619489652784688
88057.57525230054,88057.57525230054,88057.57525230054,88057.57525230054,0.08970919688953871,0.07864706778966962,0.10498187561211549,0.19517278941144756,0.0,0.45716160428146857
88057.58025230054,88057.58025230054,88057.58025230054,88057.58025230054,0.08857491150348255,0.07748040546964803,0.10395588663681427,0.1946657128437891,0.0,0.4524084210491971
88057.58525230055,88057.58525230055,88057.58525230055,88057.58525230055,0.08743670616755592,0.07631094982570422,0.10292705399933041,0.19416242709102527,0.0,0.44769077177558764
88057.59025230055,88057.59025230055,88057.59025230055,88057.59025230055,0.08629474670004011,0.07513885564993548,0.1018955398811313,0.19366307258400275,0.0,0.4430099728171602
88057.59525230055,88057.59525230055,88057.59525230055,88057.59525230055,0.08514914554473557,0.3212873121447847,0.10086152128644527,0.11389785753871488,0.0,0.0
88057.60025230056,88057.60025230056,88057.60025230056,88057.60025230056,0.0840000307417216,0.07278722735965092,0.09982517099266569,0.11306302439305958,0.0,0.0
88057.60525230056,88057.60525230056,88057.60525230056,88057.60525230056,0.08284755269239608,0.07160796125067136,0.09878666917513557,0.11223158783927925,0.0,0.0
88057.61025230057,88057.61025230057,88057.61025230057,88057.61025230057,0.08169173306867564,0.23179465301842464,0.09774619088361702,0.1243336688477461,0.0,0.0
88057.61525230057,88057.61525230057,88057.61525230057,88057.61525230057,0.08053278226792383,0.06924301494076691,0.09670392569003808,0.12359601269312383,0.0,0.0
88057.62025230058,88057.62025230058,88057.62025230058,88057.62025230058,0.07937078047359654,0.06805760966850892,0.09566006188009797,0.12286318149579308,0.0,0.0
88057.62525230058,88057.62525230058,88057.62525230058,88057.62525230058,0.07820585118185931,0.06687040406170001,0.09461479016315028,0.12213541400373339,0.0,0.0
88057.63025230059,88057.63025230059,88057.63025230059,88057.63025230059,0.07703806461073553,0.06568148940013464,0.09356830083179532,0.12141294810243902,0.0,0.0
88057.63525230059,88057.63525230059,88057.63525230059,88057.63525230059,0.07586758312788826,0.06449101214977424,0.09252079946955281,0.12069602816640065,0.0,0.0
88057.6402523006,88057.6402523006,88057.6402523006,88057.6402523006,0.07469453035797662,0.06329909442675839,0.09147248856162822,0.11998489544855623,0.0,0.0
88057.6452523006,88057.6452523006,88057.6452523006,88057.6452523006,0.07351900043234913,0.06210584253559743,0.08240796926581019,0.11927979140712106,0.0,0.0
88057.6502523006,88057.6502523006,88057.6502523006,88057.6502523006,0.07234111672648645,0.06091137905992369,0.08125521761634891,0.11858095916138207,0.0,0.0
88057.65525230061,88057.65525230061,88057.65525230061,88057.65525230061,0.44937862698542236,0.05971582361034576,0.13682378645150228,0.11788864457817885,0.08040382635741875,0.0
88057.66025230061,88057.66025230061,88057.66025230061,88057.66025230061,0.06997876441394113,0.05851929829632631,0.1361486983833928,0.11720308639521727,0.0736788295433847,0.0
88057.66525230062,88057.66525230062,88057.66525230062,88057.66525230062,0.06879452947198872,0.057321919273598455,0.1354785496960021,0.11652452980353106,0.06700303715343425,0.0
88057.67025230062,88057.67025230062,88057.67025230062,88057.67025230062,0.0676084129393178,0.05612380767363953,0.13481355482569785,0.1158532182586952,0.06037858532943935,0.0
88057.67525230063,88057.67525230063,88057.67525230063,88057.67525230063,0.06642053228442549,0.054925083495542266,0.13415392818461627,0.08461040078874828,0.0538076099718862,0.0
88057.68025230063,88057.68025230063,88057.68025230063,88057.68025230063,0.06523104130193809,0.053725875735500285,0.13349988453706052,0.08371499567093803,0.04729225048942779,0.0
88057.68525230064,88057.68525230064,88057.68525230064,88057.68525230064,0.06404001789988957,0.052526291232193455,0.13285163568056724,0.08282606743920294,0.04083461673680226,0.0
88057.69025230064,88057.69025230064,88057.69025230064,88057.69025230064,0.06284756316162975,0.05132644939147029,0.13220939608052304,0.06055377898937109,0.0344368451449582,0.0
88057.69525230065,88057.69525230065,88057.69525230065,88057.69525230065,0.06165383955604874,0.05018937006508344,0.1315733772234661,0.059367783849776326,0.02810104247057312,0.0
88057.70025230065,88057.70025230065,88057.70025230065,88057.70025230065,0.06045896005434839,0.051073507554387505,0.1309437910330425,0.05829301260006274,0.021829319824644252,0.0
88057.70525230066,88057.70525230066,88057.70525230066,88057.70525230066,0.05926301590256131,0.05227338365743898,0.130320847444027,0.057353106273483535,0.015623768505712163,0.0
88057.71025230066,88057.71025230066,88057.71025230066,88057.71025230066,0.058066159845863045,0.05347303580132368,0.1297047580027298,0.05655493363506715,0.009486495865882568,0.0
88057.71525230067,88057.71525230067,88057.71525230067,88057.71525230067,0.056868490555859894,0.0546723386310708,0.12909573071590663,0.05590468577116196,0.003419573997428894,0.0
88057.72025230067,88057.72025230067,88057.72025230067,88057.72025230067,0.05567013141254634,0.05587117095057522,0.12849397205979973,0.055407667929909796,0.0,0.0
88057.72525230068,88057.72525230068,88057.72525230068,88057.72525230068,0.05447120098812557,0.057069406794787746,0.12789968774487648,0.055068103382170684,0.0,0.0
88057.73025230068,88057.73025230068,88057.73025230068,88057.73025230068,0.05327184198949694,0.05826696431170549,0.12731308210065978,0.054888967011180206,0.0,0.0
88057.73525230068,88057.73525230068,88057.73525230068,88057.73525230068,0.052072145449408705,0.05946368001385494,0.06129248114772639,0.054871855743745736,0.0,0.0
88057.74025230069,88057.74025230069,88057.74025230069,88057.74025230069,0.05087223946221749,0.06065942531672011,0.06010368603656396,0.05501692151673621,0.0,0.0
88057.7452523007,88057.7452523007,88057.7452523007,88057.7452523007,0.05032774981382425,0.061854143273254995,0.05894883603545547,0.05532286996674545,0.0,0.0
88057.7502523007,88057.7502523007,88057.7502523007,88057.7502523007,0.0515277075602024,0.06304766015652262,0.05792433181811241,0.055787008302305194,0.0,0.0
88057.7552523007,88057.7552523007,88057.7552523007,88057.7552523007,0.05272751335894341,0.06423987604680462,0.057037353452182867,0.05640536410809039,0.0,0.0
88057.76025230071,88057.76025230071,88057.76025230071,88057.76025230071,0.0984388155640693,0.0654306751417558,0.05994125597282178,0.057172843820635026,0.0,0.0
88057.76525230071,88057.76525230071,88057.76525230071,88057.76525230071,0.05512618691742309,0.06661991338496996,0.059384888267673984,0.058083424226189145,0.0,0.0
88057.77025230072,88057.77025230072,88057.77025230072,88057.77025230072,0.05632481179392822,0.0678074893120261,0.058974415798978226,0.059130363349285626,0.0,0.0
88057.77525230072,88057.77525230072,88057.77525230072,88057.77525230072,0.05752280363468247,0.06899328472664751,0.05871295880557567,0.06030313962957226,0.0,0.0
88057.78025230073,88057.78025230073,88057.78025230073,88057.78025230073,0.05872005231368478,0.4613478529782399,0.05860255071248616,0.12952240073165494,0.0,0.0
88057.78525230073,88057.78525230073,88057.78525230073,88057.78525230073,0.05991642931251869,0.07135910206157987,0.05864406227820884,0.13009046166723268,0.0,0.0
88057.79025230074,88057.79025230074,88057.79025230074,88057.79025230074,0.06111179164045661,0.07253881695180997,0.058837163429092725,0.13066631305439302,0.0,0.0
88057.79525230074,88057.79525230074,88057.79525230074,88057.79525230074,0.06230607652192219,0.0737163465843072,0.05918034447747514,0.13124976214692866,0.0,0.0
88057.80025230075,88057.80025230075,88057.80025230075,88057.80025230075,0.06349911056403622,0.07489146429015033,0.05967096460512405,0.1318406103734117,0.0,0.0
88057.80525230075,88057.80525230075,88057.80525230075,88057.80525230075,0.06469077994246716,0.076064067239869,0.060305352966678785,0.13243865793059212,0.0,0.0
88057.81025230075,88057.81025230075,88057.81025230075,88057.81025230075,0.06588100449869244,0.0772341074501337,0.06107893824172035,0.13304370476811828,0.0,0.0
88057.81525230076,88057.81525230076,88057.81525230076,88057.81525230076,0.06706963078781616,0.07840140658405517,0.06198639678897491,0.13365554827811763,0.0,0.0
88057.82025230076,88057.82025230076,88057.82025230076,88057.82025230076,0.06825656903862165,0.07956589660658019,0.06302181599409978,0.1342739865423125,0.0,0.0
88057.82525230077,88057.82525230077,88057.82525230077,88057.82525230077,0.06944165990067225,0.08072739441130951,0.06414692626479877,0.13489881220747757,0.0,0.0
88057.83025230077,88057.83025230077,88057.83025230077,88057.83025230077,0.07062482877177315,0.08188585427958615,0.0652734690457085,0.1355298210357452,0.0,0.0
88057.83525230078,88057.83525230078,88057.83525230078,88057.83525230078,0.07180590065367254,0.08304107230885359,0.06640119957681703,0.1361668040161114,0.0,0.0
88057.84025230078,88057.84025230078,88057.84025230078,88057.84025230078,0.07298478674338128,0.08419297960656708,0.06431489308966691,0.13680955303379752,0.0,0.0
88057.84525230079,88057.84525230079,88057.84525230079,88057.84525230079,0.07416143722021873,0.08534156068161372,0.06549976615257795,0.13745786398499357,0.0,0.0
88057.85025230079,88057.85025230079,88057.85025230079,88057.85025230079,0.07533562256446079,0.08648653531602006,0.06668324445664357,0.13811152538918517,0.0,0.0
88057.8552523008,88057.8552523008,88057.8552523008,88057.8552523008,0.07650726836697984,0.08762785320292704,0.06786520216356033,0.13877032789037208,0.0,0.0
88057.8602523008,88057.8602523008,88057.8602523008,88057.8602523008,0.07767630413601107,0.08876546592169321,0.06904551683297531,0.08029349636547695,0.0,0.0
88057.8652523008,88057.8652523008,88057.8652523008,88057.8652523008,0.07884254594655285,0.08989916487684753,0.07022406232263584,0.08144878273185141,0.0,0.0
88057.87025230081,88057.87025230081,88057.87025230081,88057.87025230081,0.08000588630321036,0.09102885042097264,0.07140071499604833,0.08260101353048013,0.0,0.0
88057.87525230082,88057.87525230082,88057.87525230082,88057.87525230082,0.08116624783764216,0.09215446308233075,0.07257535146643998,0.08375006876581355,0.0,0.0
88057.88025230082,88057.88025230082,88057.88025230082,88057.88025230082,0.08232351706309403,0.0932758927753683,0.07374785194619675,0.08489583508702558,0.0,0.0
88057.88525230082,88057.88525230082,88057.88525230082,88057.88525230082,0.08347753469813632,0.12230605925435746,0.07491809379939715,0.08820780678574962,0.0,0.0
88057.89025230083,88057.89025230083,88057.89025230083,88057.89025230083,0.08462817884218994,0.09550557128867476,0.07608595236513492,0.08931897952030952,0.0,0.0
88057.89525230083,88057.89525230083,88057.89525230083,88057.89525230083,0.0857753989882584,0.0966136743962562,0.0772513098815055,0.09042728541719966,0.0,0.0
88057.90025230084,88057.90025230084,88057.90025230084,88057.90025230084,0.08691900812687911,0.09771707243229229,0.07841404243316794,0.09153257531772085,0.0,0.0
88057.90525230084,88057.90525230084,88057.90525230084,88057.90525230084,0.08805892342914991,0.09881569651848446,0.07957403104857406,0.09263470839090968,0.0,0.0
88057.91025230085,88057.91025230085,88057.91025230085,88057.91025230085,0.08919507306336923,0.09990949058729283,0.08073115774626932,0.0937335453416414,0.0,0.0
88057.91525230085,88057.91525230085,88057.91525230085,88057.91525230085,0.6406250395265969,0.10099822717350197,0.17845249213667086,0.0948289455279224,0.4950947775530173,0.0
88057.92025230086,88057.92025230086,88057.92025230086,88057.92025230086,0.09145545899620314,0.10208194340142443,0.17898358742508458,0.09592077717854672,0.500385367464542,0.0
88057.92525230086,88057.92525230086,88057.92525230086,88057.92525230086,0.09257944211852198,0.2218389064986689,0.17951898009215744,0.10872616013681291,0.5057187663948551,0.0
88057.93025230087,88057.93025230087,88057.93025230087,88057.93025230087,0.09369922952660503,0.10423352197746204,0.1800585177449194,0.10969467645537517,0.511093456257226,0.0
88057.93525230087,88057.93525230087,88057.93525230087,88057.93525230087,0.09481461423030613,0.10530122812427882,0.1806020428245871,0.1106617765620538,0.5165078675048562,0.0
88057.94025230088,88057.94025230088,88057.94025230088,88057.94025230088,0.09592554261661335,0.10636343522006665,0.18114939750463663,0.11162726287780149,0.5219604279238069,0.0
88057.94525230088,88057.94525230088,88057.94525230088,88057.94525230088,0.09703189563807818,0.107420026817454,0.18170042466593023,0.11259094529461079,0.527449572346879,0.0
88057.95025230089,88057.95025230089,88057.95025230089,88057.95025230089,0.09813347909531257,0.10847079543520181,0.1822549634194941,0.11355263021247193,0.5329736980530537,0.0
88057.95525230089,88057.95525230089,88057.95525230089,88057.95525230089,0.09923026112371428,0.10951573181841406,0.1828128537588538,0.11451213028006475,0.5385312111124698,0.0
88057.9602523009,88057.9602523009,88057.9602523009,88057.9602523009,0.10032217684656913,0.11055478517519408,0.18337393655057926,0.11546926432295407,0.5441205262922355,0.0
88057.9652523009,88057.9652523009,88057.9652523009,88057.9652523009,0.10140901865223856,0.11158773280112429,0.1839380500266369,0.1147887913827806,0.549740032114439,0.0
88057.9702523009,88057.9702523009,88057.9702523009,88057.9702523009,0.10249077739076648,0.11261459074818299,0.18450503562871315,0.11575410304178126,0.5553881490753028,0.0
88057.97525230091,88057.97525230091,88057.97525230091,88057.97525230091,0.10356724833513814,0.11363514076602675,0.18507472926728824,0.11671625343988244,0.5610632425710622,0.0
88057.98025230091,88057.98025230091,88057.98025230091,88057.98025230091,0.10463833185810874,0.11464929091135435,0.1856469689245639,0.11767507561459872,0.5667636986357347,0.0
88057.98525230092,88057.98525230092,88057.98525230092,88057.98525230092,0.10570394338743293,0.11565696670715567,0.18622159226077284,0.11863040472510918,0.5724879000959923,0.0
88057.99025230092,88057.99025230092,88057.99025230092,88057.99025230092,0.10676404953846,0.6239884969662578,0.18679843816284833,0.19438211479594267,0.578234241998479,0.44975005824621184
88057.99525230093,88057.99525230093,88057.99525230093,88057.99525230093,0.1078184139282794,0.1176525976009162,0.09985078652507808,0.19496666328355042,0.0,0.4552294399549291
88058.00025230093,88058.00025230093,88058.00025230093,88058.00025230093,0.10886702274843257,0.11864030738406342,0.10093649017350247,0.19555159102496372,0.0,0.4607123766747518
88058.00525230094,88058.00525230094,88058.00525230094,88058.00525230094,0.10990969074447894,0.11962109028197868,0.10201715168088747,0.18989199246578942,0.0,0.407661002013371
88058.01025230094,88058.01025230094,88058.01025230094,88058.01025230094,0.11094652379788136,0.12059509227728821,0.10309266866582151,0.19049639924739728,0.0,0.4133265293972843
88058.01525230095,88058.01525230095,88058.01525230095,88058.01525230095,0.11197717845833982,0.1215619373617618,0.10416292849008914,0.19110059621673148,0.0,0.41899009006404925
88058.02025230095,88058.02025230095,88058.02025230095,88058.02025230095,0.11300160953782165,0.1225215963712938,0.10522781974659474,0.19170442209554675,0.0,0.4246501722399024
88058.02525230095,88058.02525230095,88058.02525230095,88058.02525230095,0.11401978641551946,0.12347405607473763,0.1062872369163718,0.19230772013525058,0.0,0.4303053066106825
88058.03025230096,88058.03025230096,88058.03025230096,88058.03025230096,0.11503146871759694,0.12441906219494676,0.10734107053484017,0.1929103316882306,0.0,0.43595400606138773
88058.03525230096,88058.03525230096,88058.03525230096,88058.03525230096,0.11603670617431906,0.12535669332704738,0.10838921741637669,0.19351210268985422,0.0,0.44159482643648984
88058.04025230097,88058.04025230097,88058.04025230097,88058.04025230097,0.11703535269733113,0.1262868032886729,0.10943156932756756,0.19411287604750066,0.0,0.44722629519701035
88058.04525230097,88058.04525230097,88058.04525230097,88058.04525230097,0.8235916202896916,0.1272093125151234,0.23178972984626836,0.1947125004714953,1.0,0.45284699419904256
88058.05025230098,88058.05025230098,88058.05025230098,88058.05025230098,0.11901239958348353,0.12812400360611714,0.2322825937301039,0.19531081634289876,1.0,0.45845542722265736
88058.05525230098,88058.05525230098,88058.05525230098,88058.05525230098,0.11999063830449538,0.12903095114005234,0.23277602324347652,0.19590767609126247,1.0,0.4640502109868543
88058.06025230099,88058.06025230099,88058.06025230099,88058.06025230099,0.12096190963244777,0.12993003120551644,0.23326988594767234,0.19650293158217996,1.0,0.46962995692426135
88058.06525230099,88058.06525230099,88058.06525230099,88058.06525230099,0.12192600824460918,0.13082103206720028,0.23376404541752296,0.1970964298271093,1.0,0.4751932309663007
88058.070252301,88058.070252301,88058.070252301,88058.070252301,0.12288292818850466,0.13170396660535225,0.23425836626545785,0.12488402942401602,1.0,0.0
88058.075252301,88058.075252301,88058.075252301,88058.075252301,0.12383266191640568,0.13257884503787315,0.23475271995509914,0.12581517925914912,1.0,0.0
88058.080252301,88058.080252301,88058.080252301,88058.080252301,0.1247748617425473,0.13344529708104516,0.23524696728941047,0.12673877516595222,1.0,0.0
88058.08525230101,88058.08525230101,88058.08525230101,88058.08525230101,0.12570967457464124,0.13430350568924196,0.23574097968744673,0.12765473465789068,1.0,0.0
88058.09025230102,88058.09025230102,88058.09025230102,88058.09025230102,0.1266368851934966,0.13515324913442336,0.23623461876022633,0.128562952711757,1.0,0.0
88058.09525230102,88058.09525230102,88058.09525230102,88058.09525230102,0.1275564126634644,0.13599445570543914,0.23672775390846032,0.12946334238089394,1.0,0.0
88058.10025230102,88058.10025230102,88058.10025230102,88058.10025230102,0.1284683093693761,0.13682720117839528,0.23722025818356032,0.1303558240288538,1.0,0.0
88058.10525230103,88058.10525230103,88058.10525230103,88058.10525230103,0.1293722352028666,0.13765112652393066,0.23771199457404665,0.13124029579401855,1.0,0.0
88058.11025230103,88058.11025230103,88058.11025230103,88058.11025230103,0.13026819882699237,0.1384662593353644,0.23820283408529258,0.13211667328976737,1.0,0.0
88058.11525230104,88058.11525230104,88058.11525230104,88058.11525230104,0.1311562240951883,0.13927264308493145,0.23869264764014106,0.13298487092721614,1.0,0.0
88058.12025230104,88058.12025230104,88058.12025230104,88058.12025230104,0.13203606158970171,0.140070020192195,0.23918130262137177,0.13384479542557476,1.0,0.0
88058.12525230105,88058.12525230105,88058.12525230105,88058.12525230105,0.13290773765138517,0.14085843666954423,0.12616567433703724,0.13469636181766403,0.0,0.0
88058.13025230105,88058.13025230105,88058.13025230105,88058.13025230105,0.1337712030870903,0.14163785498066825,0.12708639325658014,0.13553949605514104,0.0,0.0
88058.13525230106,88058.13525230106,88058.13525230106,88058.13525230106,0.13462613011040225,0.14240793304688318,0.127999429501473,0.13637409781935417,0.0,0.0
88058.14025230106,88058.14025230106,88058.14025230106,88058.14025230106,0.13547271681027304,0.1431689039037636,0.1289046975145953,0.1372000899536474,0.0015165664775491096,0.0
88058.14525230107,88058.14525230107,88058.14525230107,88058.14525230107,0.13631067861449922,0.14392047326087806,0.12980210569342415,0.138017389104854,0.010456240319530618,0.0
88058.15025230107,88058.15025230107,88058.15025230107,88058.15025230107,0.13714001868477807,0.14466266080987678,0.13069156365366266,0.13882591295804173,0.019316716798654446,0.0
88058.15525230108,88058.15525230108,88058.15525230108,88058.15525230108,0.13796066265603038,0.1453954016002648,0.131572977194934,0.13962557484059518,0.028097057522932938,0.0
88058.16025230108,88058.16025230108,88058.16025230108,88058.16025230108,0.13877254046601106,0.14611863524747473,0.1324462686128645,0.14041630662217497,0.03679648842792921,0.0
88058.16525230109,88058.16525230109,88058.16525230109,88058.16525230109,0.13957554567357755,0.6252139014413535,0.13331134511453618,0.20741305671921015,0.045414085142280285,0.5718981885303523
88058.17025230109,88058.17025230109,88058.17025230109,88058.17025230109,0.14036951852441945,0.24304784997326365,0.1341681167461224,0.21347257935545483,0.053948951576680934,0.6286983312053893
88058.1752523011,88058.1752523011,88058.1752523011,88058.1752523011,0.14115455867835822,0.14823034621669878,0.13501650543621696,0.21398107652074622,0.06240031001044197,0.6334648306926002
88058.1802523011,88058.1802523011,88058.1802523011,88058.1802523011,0.14193043633449273,0.14891469394850804,0.13585641549288396,0.21448489469469403,0.0707672071931733,0.6381874707222523
88058.1852523011,88058.1852523011,88058.1852523011,88058.1852523011,0.1426970841368166,0.1495891106205808,0.1366877675280797,0.21498392239567196,0.07904885228829207,0.6428652062991109
88058.19025230111,88058.19025230111,88058.19025230111,88058.19025230111,0.14345437669620487,0.15025347669031575,0.13751047397303814,0.21547804303763352,0.08724437296565281,0.6474969445806418
88058.19525230111,88058.19525230111,88058.19525230111,88058.19525230111,0.14420249000948668,0.15090799580756725,0.13832445785242176,0.21596714833916955,0.09535300242322771,0.6520816705694832
88058.20025230112,88058.20025230112,88058.20025230112,88058.20025230112,0.14494124004844344,0.15155248490058718,0.1391296454186983,0.21645113358893311,0.10337400601328287,0.6566184027329628
88058.20525230112,88058.20525230112,88058.20525230112,88058.20525230112,0.14567031138563188,0.15218662125482754,0.13992594126914534,0.21692987925521562,0.11130643336647449,0.6611060206167957
88058.21025230113,88058.21025230113,88058.21025230113,88058.21025230113,0.146389896463131,0.1528106253043974,0.14071326599951842,0.21740327812922278,0.11914949348483295,0.6655435192779894
88058.21525230113,88058.21525230113,88058.21525230113,88058.21525230113,0.14709989715324584,0.15342440643838917,0.14149155374217842,0.2178712341266054,0.12690253021742925,0.6699299980507536
88058.22025230114,88058.22025230114,88058.22025230114,88058.22025230114,0.14780005997800955,0.15402770894003281,0.14226071076011265,0.218333631547271,0.13456460978815096,0.6742643723972208
88058.22525230114,88058.22525230114,88058.22525230114,88058.22525230114,0.14849047246466965,0.1546206403652398,0.14302066645331246,0.2187903726225793,0.1421350289038195,0.6785457258635623
88058.23025230115,88058.23025230115,88058.23025230115,88058.23025230115,0.46424498381483725,0.15520316521913452,0.1809686776759261,0.21924135836713698,0.5201601587000971,0.6827731305904732
88058.23525230115,88058.23525230115,88058.23525230115,88058.23525230115,0.14984172885652217,0.15577510846682316,0.18155818558773937,0.2196864858596829,0.5260326352199299,0.6869456218250067
88058.24025230116,88058.24025230116,88058.24025230116,88058.24025230116,0.1505025612050963,0.15633666032162255,0.18214129113899724,0.22012566423862875,0.5318413336101062,0.691062347857963
88058.24525230116,88058.24525230116,88058.24525230116,88058.24525230116,0.1511531405043135,0.7598760316348729,0.18271787302059683,0.24517902767692074,0.5375850454307662,0.9259050414511417
88058.25025230116,88058.25025230116,88058.25025230116,88058.25025230116,0.15179342970028029,0.15742719437846192,0.18328781695535093,0.24076897043053175,0.5432626322915931,0.8845664912324046
88058.25525230117,88058.25525230117,88058.25525230117,88058.25525230117,0.15242397151301057,0.2517464039466853,0.183851033306222,0.24608422977654135,0.5488732012590266,0.9343901336761719
88058.26025230117,88058.26025230117,88058.26025230117,88058.26025230117,0.15304422271721999,0.6980093565650248,0.18440741655931087,0.2993702396379314,0.5544157012396334,1.0
88058.26525230118,88058.26525230118,88058.26525230118,88058.26525230118,0.15365393569765154,0.15898303802301983,0.18495685284808583,0.2996726704314989,0.5598889979339057,1.0
88058.27025230118,88058.27025230118,88058.27025230118,88058.27025230118,0.15425342550395307,0.1594798924013695,0.1854992519752274,0.29997052764392096,0.5652921928269464,1.0
88058.27525230119,88058.27525230119,88058.27525230119,88058.27525230119,0.39626016377406764,0.1599657045693623,0.20718158083599295,0.300263726030892,0.7812841491324751,1.0
88058.28025230119,88058.28025230119,88058.28025230119,88058.28025230119,0.15542099468969167,0.16044062915561527,0.2076558212413587,0.30055219206940376,0.7860083701131572,1.0
88058.2852523012,88058.2852523012,88058.2852523012,88058.2852523012,0.15598896698402293,0.16090442575653477,0.20812372518052896,0.300835855270638,0.7906694693812955,1.0
88058.2902523012,88058.2902523012,88058.2902523012,88058.2902523012,0.1565462825124797,0.65670906081492,0.20858518890826064,0.34058323986335864,0.7952664134622038,1.0
88058.2952523012,88058.2952523012,88058.2952523012,88058.2952523012,0.15709301976064308,0.1617986614168181,0.20904011780417575,0.3408253631589108,0.7997982597799869,1.0
88058.30025230121,88058.30025230121,88058.30025230121,88058.30025230121,0.15762913713685445,0.16222916472538698,0.20948842759958497,0.3410631006064564,0.8042641688787362,1.0
88058.30525230122,88058.30525230122,88058.30525230122,88058.30525230122,0.2856695294331843,0.23993019814604627,0.2181920141188921,0.34413329313291535,0.8909663257942365,1.0
88058.31025230122,88058.31025230122,88058.31025230122,88058.31025230122,0.15866889581852361,0.1630563197775313,0.18897362479774327,0.3443601780844291,0.599902708500283,1.0
88058.31525230122,88058.31525230122,88058.31525230122,88058.31525230122,0.15917243103336215,0.1634528869461214,0.1894498305953206,0.3445825262036845,0.6046465080470598,1.0
88058.32025230123,88058.32025230123,88058.32025230123,88058.32025230123,0.1596649957292021,0.16383805363334375,0.18991802556192552,0.3448002713797194,0.6093105064311257,1.0
88058.32525230123,88058.32525230123,88058.32525230123,88058.32525230123,0.16014670809688802,0.16421195512501732,0.19037814330356378,0.2906619188431455,0.6138940422581818,1.0
88058.33025230124,88058.33025230124,88058.33025230124,88058.33025230124,0.16061740532821447,0.16457443491048257,0.1908301117416992,0.2909092470326334,0.6183963975064628,1.0
88058.33525230124,88058.33525230124,88058.33525230124,88058.33525230124,0.1610770337922236,0.1649254499529718,0.1912738299665385,0.2869968632545922,0.6228165669470656,1.0
88058.34025230125,88058.34025230125,88058.34025230125,88058.34025230125,0.16152565961871754,0.165265081041011,0.19170922856784245,0.2315667664852264,0.6271538591388883,0.7983077991876363
88058.34525230125,88058.34525230125,88058.34525230125,88058.34525230125,0.4226066462224951,0.16559300982523112,0.2154973460633105,0.23185611324304187,0.864122962765449,0.8010200486688369
88058.35025230126,88058.35025230126,88058.35025230126,88058.35025230126,0.16238906204304773,0.16590937145993434,0.21587059010504425,0.2321379169034814,0.8678410924585805,0.8036615914239661
88058.35525230126,88058.35525230126,88058.35525230126,88058.35525230126,0.16280400562659433,0.1662142281290887,0.19606835759668964,0.2324121261927261,0.6705780140244204,0.8062319468276671
88058.36025230127,88058.36025230127,88058.36025230127,88058.36025230127,0.1632077339281195,0.1665075303548576,0.19646340187714234,0.23267868195805488,0.6745133102516023,0.8087305604001235
88058.36525230127,88058.36525230127,88058.36525230127,88058.36525230127,0.16360005699420616,0.16678909481763804,0.19684992908018747,0.23293752817625926,0.6783637622619532,0.8111569069966293
88058.37025230128,88058.37025230128,88058.37025230128,88058.37025230128,0.16398098404388203,0.16705894339523322,0.1972278723047151,0.1704406371251012,0.6821287036094603,0.22532984741624187
88058.37525230128,88058.37525230128,88058.37525230128,88058.37525230128,0.16435062606709996,0.16731720217153187,0.19759716743488664,0.17077331682745442,0.685807495594033,0.22844828688632884
88058.38025230129,88058.38025230129,88058.38025230129,88058.38025230129,0.1647086875072427,0.16756357994212964,0.19795773793263605,0.17109494134827738,0.6893993757695928,0.23146309840980822
88058.38525230129,88058.38525230129,88058.38525230129,88058.38525230129,0.16505534028880908,0.16779826518466048,0.18918120305506322,0.16563616398150124,0.6019705322185257,0.1802941612051602
88058.3902523013,88058.3902523013,88058.3902523013,88058.3902523013,0.16539049183908447,0.16802117504438893,0.18954066808344222,0.16594599515731256,0.6055514000856992,0.18319842545957415
88058.3952523013,88058.3952523013,88058.3952523013,88058.3952523013,0.3945521645043302,0.16823236583774687,0.20993245720860187,0.16624425847310428,0.8086874402221887,0.18599425607341907
88058.4002523013,88058.4002523013,88058.4002523013,88058.4002523013,0.16602622435834866,0.16843164788503018,0.21024063322591596,0.16653092201511355,0.8117573844746516,0.1886813538966807
88058.40525230131,88058.40525230131,88058.40525230131,88058.40525230131,0.16632658207660586,0.16861900684269165,0.2105403087206168,0.1668059447115675,0.8147426494234914,0.19125933393491348
88058.41025230131,88058.41025230131,88058.41025230131,88058.41025230131,0.16661543155207226,0.1687946308178487,0.21083143395193668,0.167069307067592,0.8176427395681651,0.1937280134490303
88058.41525230132,88058.41525230132,88058.41525230132,88058.41525230132,0.16689266537812683,0.16895842197160776,0.21111395732183832,0.16732098608245305,0.8204571409066445,0.1960871768370691
88058.42025230132,88058.42025230132,88058.42025230132,88058.42025230132,0.1671580264042144,0.16911013051591145,0.21138781225118589,0.1675609380511475,0.8231851902003126,0.19833641442147512
88058.42525230133,88058.42525230133,88058.42525230133,88058.42525230133,0.16741182329800683,0.169250082296035,0.18781427924981167,0.16778915951714582,0.5883537040303356,0.20047569380178035
88058.43025230133,88058.43025230133,88058.43025230133,88058.43025230133,0.20808038363660236,0.1693780892342414,0.19060995750897214,0.16800562683990963,0.6162032962154983,0.20250479337868824
88058.43525230134,88058.43525230134,88058.43525230134,88058.43525230134,0.16788396087841975,0.16949398644715716,0.1908851707338271,0.16821030219028202,0.6189448763851978,0.2044233585530597
88058.44025230134,88058.44025230134,88058.44025230134,88058.44025230134,0.16810242182745952,0.16959808441522348,0.191150469903232,0.16840317039391942,0.6215876961198291,0.20623124708516222
88058.44525230135,88058.44525230135,88058.44525230135,88058.44525230135,0.16830905542672847,0.16969020525672265,0.19140581786445138,0.16858421641526025,0.6241313853165279,0.20792831803616377
88058.45025230135,88058.45025230135,88058.45025230135,88058.45025230135,0.1685038890619232,0.16977038836379627,0.19165117911500465,0.16875342637010726,0.6265755903117057,0.2095144412597752
88058.45525230136,88058.45525230136,88058.45525230136,88058.45525230136,0.1686869983445981,0.17829684858394312,0.19188651698670237,0.16945468100993766,0.6289199458293803,0.2160877913378241
88058.46025230136,88058.46025230136,88058.46025230136,88058.46025230136,0.5412112995609788,0.1698948252350421,0.23115304527692435,0.1695996979982384,1.0,0.21744713696952742
88058.46525230136,88058.46525230136,88058.46525230136,88058.46525230136,0.16901713398727633,0.16993896684458615,0.2313319059917146,0.16973286283722475,1.0,0.21869538411831768
88058.47025230137,88058.47025230137,88058.47025230137,88058.47025230137,0.16916450782269557,0.16997125268901841,0.23150240651992587,0.1698541703764032,1.0,0.21983248450501824
88058.47525230137,88058.47525230137,88058.47525230137,88058.47525230137,0.16929984068015078,0.16999141601934217,0.21367101656687446,0.169963595314003,0.8459296919536814,0.22085820095843967
88058.48025230138,88058.48025230138,88058.48025230138,88058.48025230138,0.16942330975102537,0.16999964684817678,0.2138376141847839,0.17006113599824788,0.8475892805356631,0.22177251799532796
88058.48525230138,88058.48525230138,88058.48525230138,88058.48525230138,0.169534786492027,0.5914257583968443,0.2139950226888261,0.22137139294900152,0.8491573303030809,0.7027394341123043
88058.49025230139,88058.49025230139,88058.49025230139,88058.49025230139,0.16963439177767783,0.16998009087522112,0.21414321151567564,0.22142807830082128,0.8506335367945236,0.703270785551061
88058.49525230139,88058.49525230139,88058.49525230139,88058.49525230139,0.16972211423021022,0.16995243694288611,0.21428215553822305,0.2214756172002355,0.8520176497023063,0.7037164008959383
88058.5002523014,88058.5002523014,88058.5002523014,88058.5002523014,0.16979775217864138,0.16991267513104708,0.21441183295344307,0.221514004234874,0.8533094518321365,0.7040762294130061
88058.5052523014,88058.5052523014,88058.5052523014,88058.5052523014,0.1698612725601456,0.1698607842392351,0.2145322060762486,0.22154321824700446,0.8545085677780447,0.7043500727760451
88058.5102523014,88058.5102523014,88058.5102523014,88058.5102523014,0.16991299658315331,0.5985518386532914,0.2124202879106335,0.2639694261726193,0.8334703601630957,1.0
88058.51525230141,88058.51525230141,88058.51525230141,88058.51525230141,0.16995273503271038,0.16972143584139932,0.21252308217012789,0.2639785599254166,0.8344943614753046,1.0
88058.52025230142,88058.52025230142,88058.52025230142,88058.52025230142,0.1699804032486001,0.8146688837995858,0.2126164211299533,0.3307072687437012,0.8354241723208866,1.0
88058.52525230142,88058.52525230142,88058.52525230142,88058.52525230142,0.316279181781693,0.1695340209799622,0.22290643542129032,0.330702262249242,0.9379297809882048,1.0
88058.53025230143,88058.53025230143,88058.53025230143,88058.53025230143,0.16999970282426713,0.16942238994980657,0.22297740938923616,0.33069110790503703,0.9386367994215948,1.0
88058.53525230143,88058.53525230143,88058.53525230143,88058.53525230143,0.16999142618728982,0.16929887520084808,0.22303931591953113,0.3303954150416475,0.9392534911373401,1.0
88058.54025230143,88058.54025230143,88058.54025230143,88058.54025230143,0.3531487943863211,0.16916333731015068,0.19807652929765354,0.33037195586347656,0.6905827347845352,1.0
88058.54525230144,88058.54525230144,88058.54525230144,88058.54525230144,0.16993880873491352,0.16901600107737136,0.1981258107981258,0.3303423625294789,0.6910736602642209,1.0
88058.55025230144,88058.55025230144,88058.55025230144,88058.55025230144,0.16989439714493604,0.16885659475100012,0.1981648407805012,0.33030663278186984,0.6914624636211836,1.0
88058.55525230145,88058.55525230145,88058.55525230145,88058.55525230145,0.1698380261169281,0.16868533266566282,0.19819362139804603,0.330264780752828,0.6917491663055265,1.0
88058.56025230145,88058.56025230145,88058.56025230145,88058.56025230145,0.5393741034463064,0.1685022787035024,0.23594378972907235,0.33021681745589376,1.0,1.0
88058.56525230146,88058.56525230146,88058.56525230146,88058.56525230146,0.16968954573561842,0.16830742546520033,0.23595074283212833,0.2982483556390783,1.0,1.0
88058.57025230146,88058.57025230146,88058.57025230146,88058.57025230146,0.16959729018196298,0.1681006587295922,0.23594907589507166,0.29818177199843227,1.0,1.0
88058.57525230147,88058.57525230147,88058.57525230147,88058.57525230147,0.16949313133776303,0.16788213764466112,0.23593878816386363,0.2981084626179828,1.0,1.0
88058.58025230147,88058.58025230147,88058.58025230147,88058.58025230147,0.16937702940312432,0.16765183443449522,0.2359198870390418,0.2980284495826676,1.0,1.0
88058.58525230148,88058.58525230148,88058.58525230148,88058.58525230148,0.16924886008126377,0.167409638273942,0.23589237672232052,0.2979417528157793,1.0,1.0
88058.59025230148,88058.59025230148,88058.59025230148,88058.59025230148,0.1691088898150865,0.16715582322779288,0.23585625979316133,0.2610059116690113,1.0,1.0
88058.59525230149,88058.59525230149,88058.59525230149,88058.59525230149,0.16895695034752556,0.16689023524788188,0.23581154067702362,0.260891783079663,1.0,1.0
88058.60025230149,88058.60025230149,88058.60025230149,88058.60025230149,0.1687930632102515,0.16661290727344646,0.23575822946438266,0.16828302615954432,1.0,0.20510505116780237
88058.6052523015,88058.6052523015,88058.6052523015,88058.6052523015,0.16861748342862584,0.16632410122327038,0.22606835512906737,0.1680827089323729,0.969427745425022,0.20322733772952795
88058.6102523015,88058.6102523015,88058.6102523015,88058.6102523015,0.16843001521453418,0.3824770167009329,0.2259949100805457,0.18868185438073692,0.9686961109307286,0.3963175315762219
88058.6152523015,88058.6152523015,88058.6152523015,88058.6152523015,0.16823042357639229,0.16571129464732684,0.22591253569641262,0.18848269131247153,0.9678755254441501,0.39445063687639725
88058.62025230151,88058.62025230151,88058.62025230151,88058.62025230151,0.1680193292725641,0.16538769534551614,0.2121467659117764,0.18827314828993674,0.8307456274092886,0.39248644360722074
88058.62525230151,88058.62525230151,88058.62525230151,88058.62525230151,0.19948571853438718,0.16505250703302926,0.2137485903132106,0.18805324633760223,0.8467024551257876,0.3904251488457476
88058.63025230152,88058.63025230152,88058.63025230152,88058.63025230152,0.2865841063078878,0.1647057564208604,0.22139920132833665,0.1878230237379457,0.9229152296252956,0.3882671114404096
88058.63525230152,88058.63525230152,88058.63525230152,88058.63525230152,0.16731502250667082,0.1643475036972393,0.22127910306080628,0.18758251058734585,0.9217188516937843,0.38601261350560834
88058.64025230153,88058.64025230153,88058.64025230153,88058.64025230153,0.16705671326084112,0.16397781252468868,0.18034941523320205,0.18733173742123502,0.5139912777035296,0.3836619412713029
88058.64525230153,88058.64525230153,88058.64525230153,88058.64525230153,0.16678672301639638,0.1635967476210744,0.180180092935151,0.18707073927554888,0.5123045467883661,0.38121542315381624
88058.65025230154,88058.65025230154,88058.65025230154,88058.65025230154,0.16650498356768,0.16320425450738954,0.17999974356886647,0.1867995551911186,0.5105079679848435,0.37867342511015767
88058.65525230154,88058.65525230154,88058.65525230154,88058.65525230154,0.16621181546477004,0.16280065646539477,0.17980839958604852,0.1865182334784958,0.5086018645657165,0.3760363999889076
88058.66025230155,88058.66025230155,88058.66025230155,88058.66025230155,0.16590671525994152,0.16238547657328992,0.1796060670373592,0.18622679857698077,0.5065862968056145,0.3733045768767163
88058.66525230155,88058.66525230155,88058.66525230155,88058.66525230155,0.1655902605627697,0.16195928720946748,0.17939279298868388,0.1859253129381003,0.5044617335588159,0.3704785411754127
88058.67025230156,88058.67025230156,88058.67025230156,88058.67025230156,0.16526214315844148,0.1615218014522797,0.17916859137543523,0.1856138085790489,0.5022283136451433,0.36755859300454813
88058.67525230156,88058.67525230156,88058.67525230156,88058.67525230156,0.16492250460453683,0.16107316847104602,0.17893349456250848,0.18529233489673244,0.4998863594726315,0.36454519539586105
88058.68025230156,88058.68025230156,88058.68025230156,88058.68025230156,0.16457148636723998,0.16061353689943664,0.17868754215788987,0.18496094812638192,0.49743626560251447,0.3614388754814932
88058.68525230157,88058.68525230157,88058.68525230157,88058.68525230157,0.16420886576674876,0.1601427037548279,0.17843074627103964,0.18461967937951862,0.4948781526651002,0.35823992489148776
88058.69025230157,88058.69025230157,88058.69025230157,88058.69025230157,0.16383493934359142,0.15966096729166326,0.17816314797854382,0.1628944774231166,0.4922124298513125,0.15459441602143906
88058.69525230158,88058.69525230158,88058.69525230158,88058.69525230158,0.16344954193591557,0.2998113722418805,0.1778847931429849,0.17445995209343,0.4894395540285373,0.2630056970436427
88058.70025230158,88058.70025230158,88058.70025230158,88058.70025230158,0.7581665577570316,0.15866456049915847,0.25652412513206047,0.17406926623074506,1.0,0.25934352527306637
88058.70525230159,88058.70525230159,88058.70525230159,88058.70525230159,0.264060293083448,0.5329554225870363,0.26014506949013566,0.21529063256514414,1.0,0.645740215178804
88058.7102523016,88058.7102523016,88058.7102523016,88058.7102523016,0.1622255808908738,0.15762465714089124,0.2533517816184064,0.21495907311995086,1.0,0.6426322766623954
88058.7152523016,88058.7152523016,88058.7152523016,88058.7152523016,0.16179491617260033,0.1570883850806903,0.2531275965459937,0.21461959204327655,1.0,0.6394500831550656
88058.7202523016,88058.7202523016,88058.7202523016,88058.7202523016,0.16135336118210653,0.15654168124968207,0.25289625390781173,0.21427226891114118,1.0,0.6361943805784916
88058.7252523016,88058.7252523016,88058.7252523016,88058.7252523016,0.1609005545779097,0.15598421184638145,0.25265779986705844,0.2139171659343865,1.0,0.6328657520783932
88058.73025230161,88058.73025230161,88058.73025230161,88058.73025230161,0.16043665477383812,0.18328934794991458,0.2524122907047054,0.214931416166441,1.0,0.6423730286985507
88058.73525230162,88058.73525230162,88058.73525230162,88058.73525230162,0.15996167890213417,0.15483749760386722,0.25215977116426624,0.21456333788121484,1.0,0.6389227735594124
88058.74025230162,88058.74025230162,88058.74025230162,88058.74025230162,0.15947573269644735,0.15424839512769867,0.25190031191035767,0.2141877593084497,1.0,0.6354022129807381
88058.74525230163,88058.74525230163,88058.74525230163,88058.74525230163,0.15897881207412443,0.1536488422612599,0.2516339606630807,0.21380474384003045,1.0,0.6318119411789909
88058.75025230163,88058.75025230163,88058.75025230163,88058.75025230163,0.1584710158705985,0.15303894576550933,0.25136078272245943,0.21341437428050705,1.0,0.6281527343391164
88058.75525230163,88058.75525230163,88058.75525230163,88058.75525230163,0.15795235117177842,0.15241872506936796,0.2510808388459306,0.21301672829603008,1.0,0.6244253204802509
88058.76025230164,88058.76025230164,88058.76025230164,88058.76025230164,0.15742289527724634,0.15178826638000856,0.2507941880309389,0.21261188144692444,1.0,0.6206304078821538
88058.76525230164,88058.76525230164,88058.76525230164,88058.76525230164,0.44499462360264547,0.15114746348486474,0.27127237919667857,0.21219991521417056,1.0,0.6167687603230286
88058.77025230165,88058.77025230165,88058.77025230165,88058.77025230165,0.1563318408177441,0.15049690524943013,0.27099550463801186,0.21178092428904646,1.0,0.6128412654104354
88058.77525230165,88058.77525230165,88058.77525230165,88058.77525230165,0.15577046880812373,0.14983624274086763,0.2707126824164567,0.2015847524920824,1.0,0.5172654176790267
88058.78025230166,88058.78025230166,88058.78025230166,88058.78025230166,0.15519826918493465,0.14916536008517678,0.1971413953541129,0.20113093696763423,0.6812672497566085,0.5130114874465326
88058.78525230166,88058.78525230166,88058.78525230166,88058.78525230166,0.15461565010504258,0.1484846556905407,0.18973893858878094,0.15517423098695127,0.6075265031569973,0.08222714794033502
88058.79025230167,88058.79025230167,88058.79025230167,88058.79025230167,0.15402246927793536,0.14779400869129666,0.18931118875674088,0.154568392601893,0.6032654053927773,0.0765482011362598
88058.79525230167,88058.79525230167,88058.79525230167,88058.79525230167,0.15341915206863388,0.14709383222028105,0.1888748693477387,0.1539525175611209,0.5989189404290903,0.07077517374023891
88058.80025230168,88058.80025230168,88058.80025230168,88058.80025230168,0.1528053742389778,0.1463838347084162,0.1884300326994009,0.15332664716830446,0.5944876296355005,0.06490845292044724
88058.80525230168,88058.80525230168,88058.80525230168,88058.80525230168,0.1521813618255127,0.14566424177397536,0.18797676285799686,0.15269085776009766,0.5899723102522441,0.05894875423371965
88058.81025230169,88058.81025230169,88058.81025230169,88058.81025230169,0.1515470494406987,0.1449350057137278,0.18751513305469295,0.15009229233740723,0.5853737117831943,0.03459058352958193
88058.81525230169,88058.81525230169,88058.81525230169,88058.81525230169,0.1509025104075248,0.3567661821943542,0.1870452202881717,0.17024809059114124,0.5806926012629342,0.22352497411894723
88058.8202523017,88058.8202523017,88058.8202523017,88058.8202523017,0.15024797764752662,0.14344808291394892,0.18656710863495501,0.1696568932233317,0.5759298162330657,0.21798326780699598
88058.8252523017,88058.8252523017,88058.8252523017,88058.8252523017,0.14958343132619573,0.1426906224357189,0.18608088238541137,0.16905768795258078,0.5710861963654569,0.21236649782140204
88058.8302523017,88058.8302523017,88058.8302523017,88058.8302523017,0.148908829839856,0.5518762692986322,0.18558661949386135,0.21483053312260933,0.5661625182144306,0.6414273813881742
88058.83525230171,88058.83525230171,88058.83525230171,88058.83525230171,0.2733376916704423,0.14114790537691055,0.1937851325904514,0.2143486923841079,0.647833306158861,0.6369107512282631
88058.84025230171,88058.84025230171,88058.84025230171,88058.84025230171,0.1475302820901492,0.1403629050611834,0.19329803057482725,0.21386149988587777,0.6429809622086036,0.6323439552822993
88058.84525230172,88058.84525230172,88058.84525230172,88058.84525230172,0.14682625253423431,0.13956877766847883,0.16228135124369963,0.21336906789014684,0.3340033938924032,0.6277280458626416
88058.85025230172,88058.85025230172,88058.85025230172,88058.85025230172,0.14611234767390865,0.13876551549409158,0.16168506522577558,0.21287148351729246,0.32806339619399627,0.6230638396095046
88058.85525230173,88058.85525230173,88058.85525230173,88058.85525230173,0.14538935539232378,0.13795386053924383,0.1610796757007432,0.21236888071181528,0.3220327124663257,0.618352592078351
88058.86025230173,88058.86025230173,88058.86025230173,88058.86025230173,0.14465649911093895,0.13713311001563658,0.1604652592383199,0.21186137111473505,0.3159121054707704,0.6135953497585215
88058.86525230174,88058.86525230174,88058.86525230174,88058.86525230174,0.42595759075309697,0.13630362908505184,0.18866628286168363,0.21134906485717897,0.5968410730804655,0.6087931449860787
88058.87025230174,88058.87025230174,88058.87025230174,88058.87025230174,0.36822505568387176,0.1354655443576182,0.20636530583113333,0.21083208368259673,0.7731526962652525,0.6039471189475032
88058.87525230175,88058.87525230175,88058.87525230175,88058.87525230175,0.14240142127125088,0.1346188998989269,0.2058711611316421,0.21031053422437568,0.7682301955031574,0.599058271192096
88058.88025230175,88058.88025230175,88058.88025230175,88058.88025230175,0.14163128170664258,0.13376391664977139,0.20537114228461495,0.2097845459074355,0.7632491784891383,0.5941278149101272
88058.88525230176,88058.88525230176,88058.88525230176,88058.88525230176,0.1408518150228037,0.1329004070263674,0.20486534666713882,0.20925423204824461,0.7582106152604845,0.5891568122960897
88058.89025230176,88058.89025230176,88058.89025230176,88058.89025230176,0.14006332331626548,0.3095979015786063,0.20435388890735703,0.22014796769193778,0.7531156477036179,0.6912714137210925
88058.89525230177,88058.89525230177,88058.89525230177,88058.89525230177,0.13926580279635442,0.1311486944166826,0.20383688128718674,0.20392399229736202,0.7479653943326569,0.5391927480426858
88058.90025230177,88058.90025230177,88058.90025230177,88058.90025230177,0.1384594162157744,0.1302606666166371,0.20331443350107795,0.20337010641433337,0.7427609478862548,0.5340007883669292
88058.90525230177,88058.90525230177,88058.90525230177,88058.90525230177,0.13764412710489637,0.1293645613572792,0.2027866558598251,0.20281225599857508,0.7375034072428789,0.5287716663537739
88058.91025230178,88058.91025230178,88058.91025230178,88058.91025230178,0.1368201251757026,0.12846056634905198,0.2022536698934345,0.152081326808933,0.7321939830429528,0.05323519442557268
88058.91525230178,88058.91525230178,88058.91525230178,88058.91525230178,0.13598745781017868,0.1275487401424734,0.19337202595640404,0.15132862199182004,0.6437180789328714,0.04617956586030016
88058.92025230179,88058.92025230179,88058.92025230179,88058.92025230179,0.1351460907646545,0.12662906803985016,0.19280546032126472,0.15056950328222943,0.6380741455392283,0.0390638153960427
88058.9252523018,88058.9252523018,88058.9252523018,88058.9252523018,0.13429624970825982,0.125701769686167,0.19223368960843806,0.14980410047393514,0.6323783609390276,0.031889159680599605
88058.9302523018,88058.9302523018,88058.9302523018,88058.9302523018,0.1334380531831618,0.12476696767880181,0.19165684807457706,0.1490325518624832,0.626632062551202,0.024656895054824456
88058.9352523018,88058.9352523018,88058.9352523018,88058.9352523018,0.13257135394399616,0.12382454664818149,0.19107502745113844,0.14825494826253827,0.6208361641732003,0.01736787278806918
88058.9402523018,88058.9402523018,88058.9402523018,88058.9402523018,0.1316964614414629,0.1228748005302145,0.19048837121141127,0.1474714382711161,0.6149920950369367,0.010023485784066519
88058.94525230181,88058.94525230181,88058.94525230181,88058.94525230181,0.1308135083863842,0.1219178641942545,0.16129271099552872,0.14668215808337917,0.3241548973284008,0.0026250106953057593
88058.95025230182,88058.95025230182,88058.95025230182,88058.95025230182,0.1299223869622252,0.12095365851738908,0.13636704901779934,0.14588723423431246,0.07585396400374982,0.0
88058.95525230182,88058.95525230182,88058.95525230182,88058.95525230182,0.12902332536651295,0.11998240361293754,0.13553237773538815,0.1450868039242661,0.06753925370128505,0.0
88058.96025230183,88058.96025230183,88058.96025230183,88058.96025230183,0.12811631584853408,0.11900411003674385,0.1346891739020025,0.14428099397865207,0.05913954503959944,0.0
88058.96525230183,88058.96525230183,88058.96525230183,88058.96525230183,0.12720150329799434,0.11801892366541548,0.13383753343805352,0.14346995149918468,0.050655793545075115,0.0
88058.97025230183,88058.97025230183,88058.97025230183,88058.97025230183,0.12627903398708293,0.1170269910839996,0.1329775417116617,0.12429362607127943,0.04208884962577796,0.0
88058.97525230184,88058.97525230184,88058.97525230184,88058.97525230184,0.12534879852739603,0.11602823435901131,0.13210927840678344,0.12335037971983047,0.03343950706607197,0.0
88058.98025230184,88058.98025230184,88058.98025230184,88058.98025230184,0.1244110943441212,0.11502293296242432,0.13123283066644972,0.12239982962413835,0.024708633955075585,0.0
88058.98525230185,88058.98525230185,88058.98525230185,88058.98525230185,0.1752710621935546,0.11401117011669706,0.1340072136658259,0.12144207720362686,0.052346090033901276,0.0
88058.99025230185,88058.99025230185,88058.99025230185,88058.99025230185,0.5419959469423719,0.11299293313348495,0.18747779749888327,0.1204772114550859,0.5850017877250883,0.0
88058.99525230186,88058.99525230186,88058.99525230186,88058.99525230186,0.12155377389713622,0.11196847256292972,0.18685715201516198,0.11950533288729186,0.5788191293463693,0.0
88059.00025230186,88059.00025230186,88059.00025230186,88059.00025230186,0.12058688672506865,0.11093778151605926,0.18623343140205684,0.11852654341726133,0.5726058375787844,0.0
88059.00525230187,88059.00525230187,88059.00525230187,88059.00525230187,0.11961291819565764,0.10990097713811033,0.1856067790825088,0.11754093802394451,0.5663633411526972,0.0
88059.01025230187,88059.01025230187,88059.01025230187,88059.01025230187,0.11863200103365523,0.10885819364972649,0.18497733994567897,0.11654861214470189,0.5600930834044555,0.0
88059.01525230188,88059.01525230188,88059.01525230188,88059.01525230188,0.11764422586783112,0.10780952880925207,0.1843452706010459,0.11554967547421532,0.553796624424208,0.0
88059.02025230188,88059.02025230188,88059.02025230188,88059.02025230188,0.11664966315335154,0.10675506331800337,0.1837107180197227,0.11454422371234903,0.547475428287997,0.0
88059.02525230189,88059.02525230189,88059.02525230189,88059.02525230189,0.11564847360372328,0.10569495482481395,0.18307383109617098,0.11353235354943028,0.5411309782316074,0.0
88059.03025230189,88059.03025230189,88059.03025230189,88059.03025230189,0.11464077014520681,0.10462931981673083,0.18243476944876652,0.11251417463372558,0.5347648643187936,0.0
88059.0352523019,88059.0352523019,88059.0352523019,88059.0352523019,0.2701370734563002,0.10355811773034623,0.19184077734349372,0.11148978049221886,0.6284643031223264,0.0
88059.0402523019,88059.0402523019,88059.0402523019,88059.0402523019,0.11260592374026775,0.10248164214248343,0.1912316078252515,0.11045928187510798,0.6223959643930435,0.0
88059.0452523019,88059.0452523019,88059.0452523019,88059.0452523019,0.17828113423119774,0.10139977926286207,0.19376473906589425,0.10942277417465678,0.6476301528309436,0.0
88059.05025230191,88059.05025230191,88059.05025230191,88059.05025230191,0.11054604246592396,0.10031297831956469,0.19316288766940848,0.10838036985151356,0.6416347147316993,0.0
88059.05525230191,88059.05525230191,88059.05525230191,88059.05525230191,0.10950691874369314,0.09922100419880622,0.19256003328913887,0.10733217411736443,0.6356292852504867,0.0
88059.06025230192,88059.06025230192,88059.06025230192,88059.06025230192,0.4171058810011405,0.11119844641594107,0.21676154212274143,0.10707997857623884,0.8767164522279358,0.0
88059.06525230192,88059.06525230192,88059.06525230192,88059.06525230192,0.10741109669412935,0.09702254242038445,0.2139781321691312,0.10602852676772333,0.8489890727134399,0.0
88059.07025230193,88059.07025230193,88059.07025230193,88059.07025230193,0.10635445525363448,0.0959161487297578,0.1677307962919641,0.1049718058770967,0.3882889046561469,0.0
88059.07525230193,88059.07525230193,88059.07525230193,88059.07525230193,0.10529221040057228,0.09480518968194906,0.16704210734463482,0.10390992662161085,0.3814284205275801,0.0
88059.08025230194,88059.08025230194,88059.08025230194,88059.08025230194,0.1042244689477312,0.4432479961157534,0.1663525234057888,0.14935652820957115,0.3745590207991339,0.027693751890355146
88059.08525230194,88059.08525230194,88059.08525230194,88059.08525230194,0.10315129487280311,0.8655213906495806,0.16566221886157217,0.2614821950436032,0.36768244264604893,1.0
88059.09025230195,88059.09025230195,88059.09025230195,88059.09025230195,0.10207274428906432,0.09144588917378384,0.16497136599795179,0.2610650370979468,0.3608004023222967,1.0
88059.09525230195,88059.09525230195,88059.09525230195,88059.09525230195,0.1009889337091456,0.0903176066419343,0.16428013925140028,0.2606498648914253,0.3539146375044535,1.0
88059.10025230196,88059.10025230196,88059.10025230196,88059.10025230196,0.09990022088390785,0.08918544785028634,0.16358872528734497,0.26023679525229004,0.3470270076897661,1.0
88059.10525230196,88059.10525230196,88059.10525230196,88059.10525230196,0.09880643623058169,0.08804930564556153,0.16289729875214545,0.25982593817786975,0.34013925264563266,1.0
88059.11025230197,88059.11025230197,88059.11025230197,88059.11025230197,0.09770772454563291,0.08690932236245218,0.1622060364760531,0.259417403298761,0.33325313389463584,1.0
88059.11525230197,88059.11525230197,88059.11525230197,88059.11525230197,0.0966042620392726,0.085765663788135,0.14944294841530426,0.2590113042279139,0.20611160881015983,1.0
88059.12025230197,88059.12025230197,88059.12025230197,88059.12025230197,0.0954961843959559,0.08461846322060688,0.1486965333468084,0.2586077494037926,0.19867607677411214,1.0
88059.12525230198,88059.12525230198,88059.12525230198,88059.12525230198,0.09438351374222412,0.08346776760725123,0.14380860312262753,0.2582068504394657,0.14998418494896096,1.0
88059.13025230198,88059.13025230198,88059.13025230198,88059.13025230198,0.09326638632930466,0.08231371151196452,0.14304125729735975,0.25780871000916444,0.1423401478611195,1.0
88059.13525230199,88059.13525230199,88059.13525230199,88059.13525230199,0.09214495718653185,0.08115644281472177,0.1422743275571707,0.2574134388296324,0.1347002556707529,1.0
88059.140252302,88059.140252302,88059.140252302,88059.140252302,0.0910193569519,0.07999609023287821,0.09942929519378375,0.25668817851246806,0.0,1.0
88059.145252302,88059.145252302,88059.145252302,88059.145252302,0.08988955517100976,0.07883266529696437,0.0983367760299802,0.25629845288121694,0.0,1.0
88059.150252302,88059.150252302,88059.150252302,88059.150252302,0.08875586196782685,0.07766642771033937,0.09723948439319878,0.2559119132625305,0.0,1.0
88059.15525230201,88059.15525230201,88059.15525230201,88059.15525230201,0.0876182270178836,0.07649737606030363,0.09613752562592345,0.2555286605926652,0.0,1.0
88059.16025230201,88059.16025230201,88059.16025230201,88059.16025230201,0.08647685717259505,0.07532569386732132,0.09503101080522815,0.23101995533996442,0.0,0.7931821559758421
88059.16525230202,88059.16525230202,88059.16525230202,88059.16525230202,0.08533183313080658,0.07415147462464308,0.09392005255340245,0.08302660709130072,0.0,0.0
88059.17025230202,88059.17025230202,88059.17025230202,88059.17025230202,0.4952539095589614,0.07297483807270902,0.1532957130338446,0.0818755366800906,0.2444915343470825,0.0
88059.17525230203,88059.17525230203,88059.17525230203,88059.17525230203,0.08303134128831308,0.07179593562091219,0.15262057713847588,0.0807213735669652,0.2377660610942234,0.0
88059.18025230203,88059.18025230203,88059.18025230203,88059.18025230203,0.08187606284227764,0.07061482405239665,0.15194824048652275,0.0795642239311644,0.23106847294842042,0.0
88059.18525230204,88059.18525230204,88059.18525230204,88059.18525230204,0.08071758050682423,0.0694316408236144,0.15127890231156865,0.07840421074434134,0.22440075460660006,0.0
88059.19025230204,88059.19025230204,88059.19025230204,88059.19025230204,0.07955604587967535,0.06824652696276225,0.15061276206583846,0.0772414567800494,0.21776489294372006,0.0
88059.19525230204,88059.19525230204,88059.19525230204,88059.19525230204,0.07839147581089242,0.06705954055775974,0.1499500136689872,0.0760760783783519,0.21116281972116663,0.0
88059.20025230205,88059.20025230205,88059.20025230205,88059.20025230205,0.3155484700054593,0.06587094056163968,0.16774448971536127,0.07490819869827507,0.38842531386417367,0.0
88059.20525230205,88059.20525230205,88059.20525230205,88059.20525230205,0.07605418912796078,0.0646807209709374,0.16716148877946102,0.07373793933226738,0.3826176576164673,0.0
88059.21025230206,88059.21025230206,88059.21025230206,88059.21025230206,0.07488153290989867,0.06348902171880827,0.16658256932514412,0.07256542217520111,0.37685065969460196,0.0
88059.21525230206,88059.21525230206,88059.21525230206,88059.21525230206,0.07370637185083549,0.06229596486413978,0.1660079016500361,0.07139076750334108,0.37112601654537203,0.0
88059.22025230207,88059.22025230207,88059.22025230207,88059.22025230207,0.07252884999310884,0.2952585113728848,0.16543765542216998,0.10072378103042584,0.3654454183437865,0.0
88059.22525230207,88059.22525230207,88059.22525230207,88059.22525230207,0.07134910363918236,0.0599063066713072,0.16487200485653772,0.09990578608813663,0.35981060056010644,0.0
88059.23025230208,88059.23025230208,88059.23025230208,88059.23025230208,0.07016718772909894,0.058709922252620166,0.16431111476532595,0.09909384393084152,0.3542232049970572,0.0
88059.23525230208,88059.23525230208,88059.23525230208,88059.23525230208,0.06898327826966344,0.05751267702854375,0.16375515601460047,0.09828825526058468,0.348684933764041,0.0
88059.24025230209,88059.24025230209,88059.24025230209,88059.24025230209,0.06779746310215437,0.056314676975434595,0.16320429435191358,0.09748932013333941,0.3431974379815766,0.0
88059.24525230209,88059.24525230209,88059.24525230209,88059.24525230209,0.06660986478776959,0.055116044109212496,0.1626586954830724,0.09669734283132195,0.33776236835433143,0.0
88059.2502523021,88059.2502523021,88059.2502523021,88059.2502523021,0.06542059611958007,0.05391689725395636,0.10675001139440317,0.09591263035569368,0.0,0.0
88059.2552523021,88059.2552523021,88059.2552523021,88059.2552523021,0.06422978504584723,0.4368982328367689,0.10593639028155727,0.14424656236635597,0.0,0.0
88059.2602523021,88059.2602523021,88059.2602523021,88059.2602523021,0.06303752140247312,0.05151754885767423,0.10512799936630743,0.143740377185859,0.0,0.0
88059.26525230211,88059.26525230211,88059.26525230211,88059.26525230211,0.09355260840684357,0.05031759557210159,0.10579080263338289,0.14324189423254166,0.0,0.0
88059.27025230211,88059.27025230211,88059.27025230211,88059.27025230211,0.060649327701410974,0.050882395066143005,0.10500484490717264,0.1427898967667212,0.0,0.0
88059.27525230212,88059.27525230212,88059.27525230212,88059.27525230212,0.059453547303136144,0.052082296439814005,0.10422505099266761,0.14239883635432235,0.0,0.0
88059.28025230212,88059.28025230212,88059.28025230212,88059.28025230212,0.05825683238384699,0.05328199235798308,0.06965486418199737,0.14206927170842626,0.0,0.0
88059.28525230213,88059.28525230213,88059.28525230213,88059.28525230213,0.756903656184845,0.054481361518928406,0.2007404584795804,0.14180168160758846,0.7171198876502932,0.0
88059.29025230213,88059.29025230213,88059.29025230213,88059.29025230213,0.05586102890762269,0.05568027487325058,0.2003529568831523,0.14159645732657555,0.7132597290657846,0.0
88059.29525230214,88059.29525230214,88059.29525230214,88059.29525230214,0.05466219091197144,0.05687862729101064,0.19997128593454355,0.14145390120175708,0.7094576534038771,0.0
88059.30025230214,88059.30025230214,88059.30025230214,88059.30025230214,0.05346288490388685,0.05807629019216215,0.19959554246556382,0.12153769106420638,0.7057146252699937,0.0
88059.30525230215,88059.30525230215,88059.30525230215,88059.30525230215,0.0522632307468272,0.05927313929176309,0.19922582034150724,0.12151828695972049,0.7020315797181425,0.0
88059.31025230215,88059.31025230215,88059.31025230215,88059.31025230215,0.0510633523274704,0.45374272375705205,0.19886221228042752,0.16558659166761497,0.6984094403739146,0.1798294852446101
88059.31525230216,88059.31525230216,88059.31525230216,88059.31525230216,0.050187117083448606,0.06166395252037659,0.19850990617746433,0.16567993324159028,0.6948998872771948,0.1807044410847942
88059.32025230216,88059.32025230216,88059.32025230216,88059.32025230216,0.05133660410700018,0.06285766646384561,0.19820095177110053,0.16582694063643533,0.6918221889788131,0.18208244418879105
88059.32525230217,88059.32525230217,88059.32525230217,88059.32525230217,0.05253644142168659,0.06405009043774422,0.1979363976315579,0.16602744946624642,0.6891867909772664,0.1839619536525816
88059.33025230217,88059.33025230217,88059.33025230217,88059.33025230217,0.053736024647848886,0.06524111010401125,0.1977164614520697,0.16628123658774274,0.6869958618582095,0.18634087779816602
88059.33525230217,88059.33525230217,88059.33525230217,88059.33525230217,0.05493523869575505,0.06643062189416643,0.19754132498504712,0.12647236751750762,0.6852512121770999,0.0
88059.34025230218,88059.34025230218,88059.34025230218,88059.34025230218,0.05613395475235426,0.06761847384555038,0.19741113396303478,0.12694544992156936,0.6839542936717845,0.0
88059.34525230218,88059.34525230218,88059.34525230218,88059.34525230218,0.057332061881399596,0.06880457655899858,0.19654410570228706,0.12748641237008856,0.67531725419998,0.0
88059.35025230219,88059.35025230219,88059.35025230219,88059.35025230219,0.058529424761063285,0.06998877147379619,0.19650393132091792,0.12805125327107417,0.6749170507310166,0.0
88059.3552523022,88059.3552523022,88059.3552523022,88059.3552523022,0.05972593954018521,0.07117098077031181,0.19650909393082933,0.12862414196265023,0.6749684788880916,0.0
88059.3602523022,88059.3602523022,88059.3602523022,88059.3602523022,0.0609214729707933,0.07235105572909413,0.19655958881942448,0.12920488160416152,0.6754714917259254,0.0
88059.3652523022,88059.3652523022,88059.3652523022,88059.3652523022,0.06211593783824092,0.07352894351384967,0.055410962530733535,0.12979327545823421,0.0,0.0
88059.37025230221,88059.37025230221,88059.37025230221,88059.37025230221,0.0633091901505635,0.11631503245172199,0.055909298927045464,0.1322803848438794,0.0,0.0
88059.37525230221,88059.37525230221,88059.37525230221,88059.37525230221,0.06450109754105797,0.07587750810720302,0.05656082554036622,0.13287489920625678,0.0,0.0
88059.38025230222,88059.38025230222,88059.38025230222,88059.38025230222,0.4558362829973943,0.07704796336113887,0.12651938305244925,0.13347643860452993,0.0,0.0
88059.38525230222,88059.38525230222,88059.38525230222,88059.38525230222,0.06688044153995348,0.07821569412308467,0.12694881271107886,0.13408480161040734,0.0,0.0
88059.39025230223,88059.39025230223,88059.39025230223,88059.39025230223,0.06806764083193056,0.07938061348755013,0.12744649724432075,0.07419508356422114,0.0,0.0
88059.39525230223,88059.39525230223,88059.39525230223,88059.39525230223,0.5219717389432261,0.08054260165319722,0.18197140985808288,0.075317342973854,0.5301490342985328,0.0
88059.40025230224,88059.40025230224,88059.40025230224,88059.40025230224,0.07043651114811943,0.08170153907174793,0.18237039220931917,0.07643922818801498,0.5341235602421386,0.0
88059.40525230224,88059.40525230224,88059.40525230224,88059.40525230224,0.07161792697190167,0.08285728458864444,0.18277588890834875,0.07756054297288957,0.5381629798940247,0.0
88059.41025230224,88059.41025230224,88059.41025230224,88059.41025230224,0.07279716767260086,0.08400972506908949,0.18318779236346364,0.07868109552116516,0.5422662214623352,0.0
88059.41525230225,88059.41525230225,88059.41525230225,88059.41525230225,0.07397419043121581,0.0851588565043065,0.18360599403603792,0.07980070488193025,0.546432203722341,0.0
88059.42025230225,88059.42025230225,88059.42025230225,88059.42025230225,0.07514879572093029,0.8198909230910421,0.18403038087459098,0.2193084739237643,0.5506598004937958,0.6834022516320125
88059.42525230226,88059.42525230226,88059.42525230226,88059.42525230226,0.0763208448124912,0.08744633615191676,0.1844608365261567,0.21972313540386135,0.5549478527081818,0.6872891636290854
88059.43025230226,88059.43025230226,88059.43025230226,88059.43025230226,0.07749028363930494,0.08858451787867909,0.1848972440787232,0.2201421257367959,0.5592951957279584,0.691216652990672
88059.43525230227,88059.43525230227,88059.43525230227,88059.43525230227,0.07865698841820754,0.42337979033652995,0.18533948376215859,0.24361676188537398,0.5637006364439688,0.9112608318024459
88059.44025230227,88059.44025230227,88059.44025230227,88059.44025230227,0.07982081603185325,0.09084921824661546,0.18578743308258147,0.24400370539388674,0.5681629546139947,0.9148879238705968
88059.44525230228,88059.44525230228,88059.44525230228,88059.44525230228,0.08098168384410502,0.341044871512551,0.18624096757415803,0.25781655673001014,0.5726809103519005,1.0
88059.45025230228,88059.45025230228,88059.45025230228,88059.45025230228,0.08213941467187892,0.09309757075726753,0.18669995948253043,0.2572265540448434,0.5772532310123971,1.0
88059.45525230229,88059.45525230229,88059.45525230229,88059.45525230229,0.08329391196509425,0.09421528652041407,0.1871642797983405,0.2576052122034462,0.5818786314483112,1.0
88059.46025230229,88059.46025230229,88059.46025230229,88059.46025230229,0.08444515318006017,0.24918446202344044,0.14996494363634355,0.2643297695500278,0.21131154695787563,1.0
88059.4652523023,88059.4652523023,88059.4652523023,88059.4652523023,0.0855929245444549,0.0964375029653465,0.15055831602512046,0.26470574822538423,0.21722252007762768,1.0
88059.4702523023,88059.4702523023,88059.4702523023,88059.4702523023,0.08673712054468145,0.09754166298766116,0.15115700214120886,0.2650848006437877,0.22318642673439293,1.0
88059.4752523023,88059.4752523023,88059.4752523023,88059.4752523023,0.08787760505275466,0.09864102041626348,0.07938946952976161,0.2654668252279137,0.0,1.0
88059.48025230231,88059.48025230231,88059.48025230231,88059.48025230231,0.08901439458863647,0.09973563276783837,0.08054706166922443,0.2658517232056141,0.0,1.0
88059.48525230231,88059.48525230231,88059.48525230231,88059.48525230231,0.09014719974011128,0.1008251656785892,0.08170168926266319,0.26623938994434865,0.0,1.0
88059.49025230232,88059.49025230232,88059.49025230232,88059.49025230232,0.09127601424171632,0.10190964683312648,0.08285323605956257,0.26662972292329995,0.0,1.0
88059.49525230232,88059.49525230232,88059.49525230232,88059.49525230232,0.0924007014276826,0.10298893754427126,0.08400158048477405,0.2670226157034583,0.0,1.0
88059.50025230233,88059.50025230233,88059.50025230233,88059.50025230233,0.0935211555856837,0.10406293820328726,0.08514660644544764,0.17310134424923748,0.0,0.2502705157394297
88059.50525230233,88059.50525230233,88059.50525230233,88059.50525230233,0.09463731155679568,0.11632866642125504,0.08628820270343332,0.1741606124779728,0.0,0.26019977752045126
88059.51025230234,88059.51025230234,88059.51025230234,88059.51025230234,0.15952776213081515,0.106194607545238,0.09306409943037473,0.17477499479386543,0.0,0.26595881256241766
88059.51525230234,88059.51525230234,88059.51525230234,88059.51525230234,0.09685599193774147,0.10725211532230339,0.0941305566061735,0.14164068762603924,0.0,0.0
88059.52025230235,88059.52025230235,88059.52025230235,88059.52025230235,0.09795837231323606,0.10830385477253272,0.09519501924538785,0.14240555966179047,0.0,0.0
88059.52525230235,88059.52525230235,88059.52525230235,88059.52525230235,0.09905588638118533,0.1093496785332893,0.09625730574046441,0.11729110222319872,0.0,0.0
88059.53025230236,88059.53025230236,88059.53025230236,88059.53025230236,0.10014862170808453,0.11038972086344434,0.09731725358396182,0.11822488511390335,0.0,0.0
88059.53525230236,88059.53525230236,88059.53525230236,88059.53525230236,0.10123627428186435,0.11142364217906424,0.09837468963801933,0.11915658898731082,0.0,0.0
88059.54025230237,88059.54025230237,88059.54025230237,88059.54025230237,0.10231883198609396,0.11245145559376324,0.09942944498029141,0.10539364216376486,0.0,0.0
88059.54525230237,88059.54525230237,88059.54525230237,88059.54525230237,0.10339614462663187,0.11347300797241416,0.1004813559998195,0.1064486520865858,0.0,0.0
88059.55025230238,88059.55025230238,88059.55025230238,88059.55025230238,0.10446809010694699,0.11448818038200041,0.10153026033750048,0.1074983185698731,0.0,0.0
88059.55525230238,88059.55525230238,88059.55525230238,88059.55525230238,0.10553460984171627,0.11549692901803965,0.10257600250297501,0.10854253360705976,0.0,0.0
88059.56025230238,88059.56025230238,88059.56025230238,88059.56025230238,0.10659552315376904,0.1164990657350076,0.10361841768729195,0.1095811746785698,0.0,0.0
88059.56525230239,88059.56525230239,88059.56525230239,88059.56525230239,0.10765089400690091,0.11749469010392147,0.10465736390234058,0.11061414626740368,0.0,0.0
88059.5702523024,88059.5702523024,88059.5702523024,88059.5702523024,0.1087004481425828,0.1184835042544373,0.10569268474991995,0.11164133260530795,0.0,0.0
88059.5752523024,88059.5752523024,88059.5752523024,88059.5752523024,0.10974407704146165,0.11946540575804791,0.10672422715101113,0.1126626203124458,0.0,0.0
88059.5802523024,88059.5802523024,88059.5802523024,88059.5802523024,0.11078182915642121,0.12044047422710116,0.10775184966650536,0.11367790819218376,0.0,0.0
88059.58525230241,88059.58525230241,88059.58525230241,88059.58525230241,0.2846678235968317,0.12140838094141086,0.1269465750713439,0.11400940347913086,0.0,0.0
88059.59025230241,88059.59025230241,88059.59025230241,88059.59025230241,0.11283884366073407,0.12236920592321385,0.12377661948691462,0.1150182684384493,0.0,0.0
88059.59525230242,88059.59525230242,88059.59525230242,88059.59525230242,0.2094603612081518,0.12332280306541245,0.13219847395321477,0.11602066914672703,0.03432804264226208,0.0
88059.60025230242,88059.60025230242,88059.60025230242,88059.60025230242,0.11487078711016449,0.12426906441002504,0.13304661759933786,0.1170165068801251,0.042776960031653766,0.0
88059.60525230243,88059.60525230243,88059.60525230243,88059.60525230243,0.4466477123648998,0.125207855607146,0.1719201394557999,0.11800568339841414,0.4300217107307494,0.0
88059.61025230243,88059.61025230243,88059.61025230243,88059.61025230243,0.1347869185799049,0.1261392292990606,0.1733930355792628,0.11898809702158233,0.44469419896688395,0.0
88059.61525230244,88059.61525230244,88059.61525230244,88059.61525230244,0.11786979328453258,0.12706291022407223,0.1740486321292,0.1199636483594203,0.4512250279326009,0.0
88059.62025230244,88059.62025230244,88059.62025230244,88059.62025230244,0.11885596171798608,0.12797883613074124,0.17470411017518275,0.12093223398753776,0.4577546764023891,0.0
88059.62525230245,88059.62525230245,88059.62525230245,88059.62525230245,0.11983527628973806,0.12888700029926697,0.17535930052919646,0.12189375978267435,0.4642814589830189,0.0
88059.63025230245,88059.63025230245,88059.63025230245,88059.63025230245,0.3092927632933424,0.12978731647830824,0.18986221650325516,0.12284813359763552,0.6087545556456179,0.0
88059.63525230245,88059.63525230245,88059.63525230245,88059.63525230245,0.12177291523267168,0.13067963760840534,0.19046877518019248,0.12379525685775136,0.6147968860653382,0.0
88059.64025230246,88059.64025230246,88059.64025230246,88059.64025230246,0.1227310807291951,0.13156397029605937,0.19107491687143516,0.12473504316414026,0.6208350626159556,0.0
88059.64525230246,88059.64525230246,88059.64525230246,88059.64525230246,0.12368184559166842,0.13244000353312071,0.1916804739774128,0.12566738046918624,0.6268674157277795,0.0
88059.65025230247,88059.65025230247,88059.65025230247,88059.65025230247,0.12462528493401236,0.13330784065719967,0.19228529258074048,0.12659218178467557,0.6328924121283787,0.0
88059.65525230247,88059.65525230247,88059.65525230247,88059.65525230247,0.12556128216503054,0.13416736980191002,0.1928892190188159,0.12750935940419653,0.6389085210833801,0.0
88059.66025230248,88059.66025230248,88059.66025230248,88059.66025230248,0.12648975730105655,0.6147694381749749,0.19349209577684584,0.19741671377644013,0.6449141734842,0.4781954763758154
88059.66525230248,88059.66525230248,88059.66525230248,88059.66525230248,0.12741048567990665,0.3596236398662035,0.1827266948409034,0.21479101899294234,0.5376729253922975,0.6410569878213047
88059.67025230249,88059.67025230249,88059.67025230249,88059.67025230249,0.1283235317052193,0.13669507853543755,0.18336422842772165,0.21533030316498009,0.5440238172873342,0.6461120754499758
88059.67525230249,88059.67525230249,88059.67525230249,88059.67525230249,0.12922872410749184,0.5024388590360854,0.17867314160347725,0.24737503470079703,0.4972928121967738,0.9464897508019197
88059.6802523025,88059.6802523025,88059.6802523025,88059.6802523025,0.13012609591848545,0.25952952055865897,0.17932564087348501,0.2538482933224578,0.5037927871174536,1.0
88059.6852523025,88059.6852523025,88059.6852523025,88059.6852523025,0.1310152910887776,0.1391447629882429,0.14409063882094683,0.2543014395266112,0.15279372826966087,1.0
88059.6902523025,88059.6902523025,88059.6902523025,88059.6902523025,0.13189656275085523,0.13994371641952164,0.1439233704481488,0.2547524157051869,0.15112745785651965,1.0
88059.69525230251,88059.69525230251,88059.69525230251,88059.69525230251,0.13276951635627185,0.14073353431981797,0.1447319594291075,0.255201101762119,0.15918234517816676,1.0
88059.70025230251,88059.70025230251,88059.70025230251,88059.70025230251,0.1336341976334691,0.1415142840491185,0.14553539097592696,0.25564738258269754,0.1671858559020138,1.0
88059.70525230252,88059.70525230252,88059.70525230252,88059.70525230252,0.13449051254107533,0.14228587922412328,0.1463335242144589,0.25609114101753216,0.17513658668789905,1.0
88059.71025230252,88059.71025230252,88059.71025230252,88059.71025230252,0.15462104932145537,0.14304837031163634,0.13011092873295044,0.2565322651311087,0.01353262998633446,1.0
88059.71525230253,88059.71525230253,88059.71525230253,88059.71525230253,0.13617780006014774,0.1438014055071975,0.1310003365351051,0.256970636137811,0.02239260680775429,1.0
88059.72025230253,88059.72025230253,88059.72025230253,88059.72025230253,0.13700852337296354,0.1445450971457182,0.1318820088319613,0.2574061397167353,0.031175525166812747,1.0
88059.72525230254,88059.72525230254,88059.72525230254,88059.72525230254,0.13783055308110584,0.14527934223219718,0.13275585921404245,0.25783866866772404,0.03988052428180994,1.0
88059.73025230254,88059.73025230254,88059.73025230254,88059.73025230254,0.13864386320635683,0.1460041281683215,0.13362179595093146,0.2582681128724344,0.048506690365653686,1.0
88059.73525230255,88059.73525230255,88059.73525230255,88059.73525230255,0.13944825656149232,0.14671925688997922,0.13447972206097447,0.25869435962755855,0.057053057320224435,1.0
88059.74025230255,88059.74025230255,88059.74025230255,88059.74025230255,0.14024353477392396,0.1474245298187588,0.13532953314810753,0.21132866540180212,0.06551858518758084,0.6086019266269017
88059.74525230256,88059.74525230256,88059.74525230256,88059.74525230256,0.14103006976826127,0.14812036389767258,0.13617116283170208,0.19480236089731298,0.07390261270656813,0.4536893188034189
88059.75025230256,88059.75025230256,88059.75025230256,88059.75025230256,0.14180734656209867,0.14880621855575982,0.1370045081695967,0.1953562616035967,0.08220411440252545,0.45888141742791005
88059.75525230257,88059.75525230257,88059.75525230257,88059.75525230257,0.14257558363106415,0.4501480507814608,0.13782949114167697,0.1872187162980427,0.0904223130657145,0.3826025152557588
88059.76025230257,88059.76025230257,88059.76025230257,88059.76025230257,0.14333444493480957,0.1501483946170242,0.1386460106529757,0.17958329057871278,0.09855620162259235,0.31103033106281985
88059.76525230258,88059.76525230258,88059.76525230258,88059.76525230258,0.14408408782405333,0.1508045534477852,0.13945399738461542,0.1801706275233955,0.10660508954217232,0.31653585092947617
88059.77025230258,88059.77025230258,88059.77025230258,88059.77025230258,0.14482417969574665,0.15145047896964406,0.1402533462042503,0.18075125936103684,0.11456792953192421,0.32197851913941555
88059.77525230258,88059.77525230258,88059.77525230258,88059.77525230258,0.14555480285403086,0.15208627424952442,0.14104398119563324,0.18132508639570658,0.12244396534011714,0.32735740117297357
88059.78025230259,88059.78025230259,88059.78025230259,88059.78025230259,0.5134954878763316,0.15271191494271236,0.1877688058818006,0.1818920056788682,0.5879007138658756,0.3326715320215327
88059.7852523026,88059.7852523026,88059.7852523026,88059.7852523026,0.37668865342970265,0.15332735936305195,0.20735245282121068,0.18245191753253232,0.7829863175020256,0.3379199773336003
88059.7902523026,88059.7902523026,88059.7902523026,88059.7902523026,0.14768918595158295,0.15393230232349892,0.20703638898291102,0.18300470499938065,0.7798377974703371,0.3431016407864522
88059.7952523026,88059.7952523026,88059.7952523026,88059.7952523026,0.14838119096378588,0.1545269266974302,0.207559877868403,0.1835502791606555,0.785052614993293,0.34821568888239757
88059.80025230261,88059.80025230261,88059.80025230261,88059.80025230261,0.14906338008350065,0.15511112197466675,0.2080784410710628,0.1840885409814133,0.7902183645458343,0.3532611932976622
88059.80525230261,88059.80525230261,88059.80525230261,88059.80525230261,0.14973558038672063,0.15568471870342318,0.2085919588706808,0.18461938872464614,0.795333853516113,0.3582372003801332
88059.81025230262,88059.81025230262,88059.81025230262,88059.81025230262,0.15039780283059276,0.15624774259243776,0.20910031432000697,0.18514272378222715,0.8003979169155582,0.3631427858068875
88059.81525230262,88059.81525230262,88059.81525230262,88059.81525230262,0.1510502154426349,0.15680038494651355,0.20960340743097997,0.185658468546593,0.8054095586972452,0.3679772221079684
88059.82025230263,88059.82025230263,88059.82025230263,88059.82025230263,0.15169226992920767,0.1573420796498634,0.21010112300646278,0.18616652644966178,0.8103676313066313,0.37273960408322115
88059.82525230263,88059.82525230263,88059.82525230263,88059.82525230263,0.15232428843818085,0.15787318087965815,0.21059334606157823,0.18666680010201403,0.8152709893036337,0.37742901883351904
88059.83025230264,88059.83025230264,88059.83025230264,88059.83025230264,0.1529460535857979,0.15839347263868825,0.21107997451426333,0.18715920857302257,0.8201186157815985,0.3820447077395044
88059.83525230264,88059.83525230264,88059.83525230264,88059.83525230264,0.15355753997161506,0.1589029416721187,0.21156089715633128,0.15473242769951834,0.8249094029225428,0.0780858168047123
88059.84025230265,88059.84025230265,88059.84025230265,88059.84025230265,0.15415866983369883,0.15940151952064077,0.21203601458089524,0.1553098296406264,0.829642360469004,0.08349820893600175
88059.84525230265,88059.84525230265,88059.84525230265,88059.84525230265,0.1547493258905782,0.1598890963552947,0.21250521657848379,0.1558767142489404,0.8343163905518608,0.08881201475296834
88059.85025230265,88059.85025230265,88059.85025230265,88059.85025230265,0.15532939534082435,0.1603655673214977,0.2129684030556958,0.1564330264687864,0.8389304960748298,0.09402671818028362
88059.85525230266,88059.85525230266,88059.85525230266,88059.85525230266,0.15589901108732082,0.16083108500743018,0.21342547765930234,0.15697871500073465,0.8434837171999457,0.09914183835252231
88059.86025230266,88059.86025230266,88059.86025230266,88059.86025230266,0.24588494486309392,0.6060721016559605,0.1812437485588463,0.2148079861836951,0.5229003209080478,0.6412160331642145
88059.86525230267,88059.86525230267,88059.86525230267,88059.86525230267,0.15700673659073078,0.16172915973728366,0.1597547956985144,0.2151927300167216,0.308834710287266,0.6448225061359517
88059.87025230267,88059.87025230267,88059.87025230267,88059.87025230267,0.15754445616797122,0.16216133480094083,0.16034214901286206,0.21557013383679274,0.3146857234428709,0.6483601760338944
88059.87525230268,88059.87525230268,88059.87525230268,88059.87525230268,0.1580713864156577,0.3967579152931022,0.1609198677472235,0.23412950394917384,0.32044076020254647,0.8223301293824599
88059.88025230268,88059.88025230268,88059.88025230268,88059.88025230268,0.15858762521352135,0.16299204236251782,0.16148788750272583,0.23446387509926825,0.3260991790467114,0.8254644239749377
88059.88525230269,88059.88525230269,88059.88525230269,88059.88525230269,0.1590929006698015,0.16339041924660078,0.1620461377145549,0.23479134847360486,0.3316602770327825,0.8285340608920996
88059.89025230269,88059.89025230269,88059.89025230269,88059.89025230269,0.15958733159208965,0.1637775244064391,0.1625945550440738,0.23511185602872217,0.33712342320288724,0.831538402315003
88059.8952523027,88059.8952523027,88059.8952523027,88059.8952523027,0.1600707378350574,0.1641531833643021,0.16313305589408428,0.23542531517627685,0.3424877847902821,0.8344766740853574
88059.9002523027,88059.9002523027,88059.9002523027,88059.9002523027,0.1605432709948277,0.21434376998262694,0.16366159825821272,0.23822100900679,0.34775294334181694,0.860682667194293
88059.9052523027,88059.9052523027,88059.9052523027,88059.9052523027,0.161004629204931,0.16487037167305935,0.16418010340936204,0.23851707018706772,0.3529181146050334,0.863457855652164
88059.91025230271,88059.91025230271,88059.91025230271,88059.91025230271,0.16145488058918234,0.16521168390915644,0.1646885099298708,0.23880597415259494,0.3579826867581604,0.8661659545316328
88059.91525230272,88059.91525230272,88059.91525230272,88059.91525230272,0.16189399458675796,0.16554148340244768,0.1651867564773016,0.23908765789331166,0.3629460487287829,0.8688063731953485
88059.92025230272,88059.92025230272,88059.92025230272,88059.92025230272,0.16232200717290435,0.1658598195867169,0.16567478888918316,0.23936206438134636,0.3678076609688567,0.8713785770811955
88059.92525230272,88059.92525230272,88059.92525230272,88059.92525230272,0.16273879716704287,0.1661665795396388,0.16615255283462282,0.23962913727009846,0.37256698225258145,0.8738820380130875
88059.93025230273,88059.93025230273,88059.93025230273,88059.93025230273,0.16314414891142168,0.16646155351054753,0.16661998778704493,0.23988881649576044,0.37722340963487816,0.876316192970958
88059.93525230273,88059.93525230273,88059.93525230273,88059.93525230273,0.16353824542646278,0.16674494237886225,0.16707703712315644,0.24014104532285407,0.38177637905383677,0.8786805101334985
88059.94025230274,88059.94025230274,88059.94025230274,88059.94025230274,0.16392109555384762,0.16701676720114483,0.16067173460173548,0.19092779304306012,0.31796894253654,0.41737028508790763
88059.94525230274,88059.94525230274,88059.94525230274,88059.94525230274,0.6345895448223771,0.2664352363769408,0.2223594044365294,0.19812971896187828,0.9324804451111878,0.4848789725341905
88059.95025230275,88059.95025230275,88059.95025230275,88059.95025230275,0.16465241937089328,0.16752511828257,0.2226810273964359,0.1984084384744277,0.9356843432140655,0.48749160541461417
88059.95525230275,88059.95525230275,88059.95525230275,88059.95525230275,0.16500085829061725,0.1677616333459128,0.2229949774421203,0.1768794889184675,0.9388118063655118,0.28568570751965067
88059.96025230276,88059.96025230276,88059.96025230276,88059.96025230276,0.16533787931621205,0.24825983395665835,0.22330118938561797,0.18296997651315894,0.9418621851852823,0.3427761064018651
88059.96525230276,88059.96525230276,88059.96525230276,88059.96525230276,0.16566333836398123,0.16819945204058429,0.22359960441753826,0.18324212524839706,0.9448348938343092,0.3453271467920593
88059.97025230277,88059.97025230277,88059.97025230277,88059.97025230277,0.16597725490240006,0.16840065200147183,0.2238901603285535,0.183503836053672,0.9477293126045122,0.3477803451661852
88059.97525230277,88059.97525230277,88059.97525230277,88059.97525230277,0.16627953168522072,0.1685899689879232,0.2241727993950095,0.18375507400771987,0.9505448664725595,0.3501353741828188
88059.98025230278,88059.98025230278,88059.98025230278,88059.98025230278,0.16657024833917458,0.16876749613095987,0.22444746177941877,0.18076124646845454,0.9532809593578329,0.3220721352805359
88059.98525230278,88059.98525230278,88059.98525230278,88059.98525230278,0.16684916250646262,0.16893299834773065,0.22471409084535468,0.18099554035811413,0.95593702706759,0.32426833573384445
88059.99025230278,88059.99025230278,88059.99025230278,88059.99025230278,0.1671165292824056,0.16908674730236511,0.22497263970933765,0.1812190659267131,0.9585126025646162,0.32636359718430896
88059.99525230279,88059.99525230279,88059.99525230279,88059.99525230279,0.16737223774913473,0.16922864170225682,0.22522305865109798,0.1814317964365181,0.9610071905525629,0.32835766900045876
88060.0002523028,88060.0002523028,88060.0002523028,88060.0002523028,0.16761605423956075,0.16935845598570218,0.22546528640744978,0.18163368957042306,0.9634201807484913,0.33025015451446926
88060.0052523028,88060.0052523028,88060.0052523028,88060.0052523028,0.723458159945725,0.16947637364451698,0.28616661657648984,0.1818247205516947,1.0,0.332040821476695
88060.0102523028,88060.0102523028,88060.0102523028,88060.0102523028,0.16806841572962164,0.43157901997613457,0.28634466754760823,0.2072912603297661,1.0,0.5707565058082934
88060.01525230281,88060.01525230281,88060.01525230281,88060.01525230281,0.16827702990986085,0.6911628629279072,0.2865162189132278,0.2666243721309317,1.0,1.0
88060.02025230281,88060.02025230281,88060.02025230281,88060.02025230281,0.16847369413497554,0.1697584624954359,0.2866812209638559,0.2667325706688618,1.0,1.0
88060.02525230282,88060.02525230282,88060.02525230282,88060.02525230282,0.16865861494700668,0.16982862595180784,0.2424767768843036,0.2617482396191224,1.0,1.0
88060.03025230282,88060.03025230282,88060.03025230282,88060.03025230282,0.1688315094867121,0.16988664455838265,0.2426563228933669,0.26184335272294357,1.0,1.0
88060.03525230283,88060.03525230283,88060.03525230283,88060.03525230283,0.16899261389351014,0.16993276842119506,0.24282795825388387,0.26193084034763264,1.0,1.0
88060.04025230283,88060.04025230283,88060.04025230283,88060.04025230283,0.16914183539526675,0.16996691548048518,0.24299164377351753,0.25799467644764923,1.0,1.0
88060.04525230284,88060.04525230284,88060.04525230284,88060.04525230284,0.16927907252400742,0.1699889951905684,0.2431473429086757,0.2580679721537019,1.0,1.0
88060.05025230284,88060.05025230284,88060.05025230284,88060.05025230284,0.16940445258519235,0.16999914729741955,0.2432950247677111,0.2581334662669331,1.0,1.0
88060.05525230285,88060.05525230285,88060.05525230285,88060.05525230285,0.16951777031388426,0.16999717707539377,0.2434346546075395,0.2581911410517851,1.0,1.0
88060.06025230285,88060.06025230285,88060.06025230285,88060.06025230285,0.16961946627248595,0.45301584394444355,0.24356621439675566,0.27876328804609785,1.0,1.0
88060.06525230285,88060.06525230285,88060.06525230285,88060.06525230285,0.16970886244975208,0.36696648440591756,0.24368966787878268,0.29041668070881704,1.0,1.0
88060.07025230286,88060.07025230286,88060.07025230286,88060.07025230286,0.16978646992261245,0.16991977305409067,0.24380499106654477,0.290447066617169,1.0,1.0
88060.07525230286,88060.07525230286,88060.07525230286,88060.07525230286,0.1698520563787183,0.16986994933097263,0.2439121555230302,0.2904704634960334,1.0,1.0
88060.08025230287,88060.08025230287,88060.08025230287,88060.08025230287,0.16990549700364074,0.16980797807258458,0.24401113832972215,0.2904868656046309,1.0,1.0
88060.08525230287,88060.08525230287,88060.08525230287,88060.08525230287,0.16994713281660742,0.16973421165932406,0.16921755391063897,0.2904962743742123,0.40309947637433624,1.0
88060.09025230288,88060.09025230288,88060.09025230288,88060.09025230288,0.1699767150127152,0.16964841299035321,0.1693366432776455,0.2730303898322661,0.4042858039833354,1.0
88060.09525230288,88060.09525230288,88060.09525230288,88060.09525230288,0.16999426379590382,0.16955061386679277,0.16944380909184836,0.2156053698199636,0.40535335323080746,0.6486904675422432
88060.10025230289,88060.10025230289,88060.10025230289,88060.10025230289,0.16999994040297509,0.1694409864261695,0.16953905618514684,0.21558976091982998,0.40630217225048293,0.6485441544070655
88060.10525230289,88060.10525230289,88060.10525230289,88060.10525230289,0.1699934403519448,0.16931923903701582,0.16962235748148988,0.21556471805627572,0.4071319913199869,0.6483094101362272
88060.1102523029,88060.1102523029,88060.1102523029,88060.1102523029,0.16997507465953451,0.1691856927211393,0.1696937229855612,0.21553026025264002,0.4078429101025624,0.6479864130487885
88060.1152523029,88060.1152523029,88060.1152523029,88060.1152523029,0.16994473803925256,0.1690402541417175,0.16975314142304465,0.21548639038958714,0.4084348162873214,0.6475751901472296
88060.1202523029,88060.1202523029,88060.1202523029,88060.1202523029,0.16990222032294017,0.16888272636401666,0.16980059414605647,0.2154331064965889,0.4089075241104139,0.6470757229604122
88060.12525230291,88060.12525230291,88060.12525230291,88060.12525230291,0.16984783072030268,0.16871342773628337,0.16983608817832732,0.2153704274338977,0.4092611035398462,0.6464881882786697
88060.13025230292,88060.13025230292,88060.13025230292,88060.13025230292,0.1697815415439117,0.16853234208868192,0.16985962087426845,0.2152983651321178,0.4094955282211665,0.645812697935898
88060.13525230292,88060.13525230292,88060.13525230292,88060.13525230292,0.16970310374747957,0.16833923452577537,0.16987118682735391,0.21521693040455203,0.4096107442964096,0.6450493532927455
88060.14025230292,88060.14025230292,88060.14025230292,88060.14025230292,0.4029822827282749,0.2806044335764918,0.19289302065530856,0.19599246276997045,0.6389463916879856,0.4648449758118505
88060.14525230293,88060.14525230293,88060.14525230293,88060.14525230293,0.16951061308960205,0.19282537619638518,0.1928821253765646,0.17977867511718593,0.6388378566415194,0.31286180696083693
88060.15025230293,88060.15025230293,88060.15025230293,88060.15025230293,0.16939625558598526,0.16768923855662402,0.19286068071833987,0.17964772888266597,0.6386242322789332,0.311634356343027
88060.15525230294,88060.15525230294,88060.15525230294,88060.15525230294,0.16927000524425914,0.16744893289959356,0.19282869474833988,0.17950561434929813,0.6383055989679549,0.3103022174508959
88060.16025230294,88060.16025230294,88060.16025230294,88060.16025230294,0.16913202683518344,0.1671970782014399,0.19278619194636615,0.17935237015242894,0.6378822005680078,0.3088657524405621
88060.16525230295,88060.16525230295,88060.16525230295,88060.16525230295,0.16898194887268242,0.1669333204111869,0.19273315814473946,0.17918799376014877,0.6373538959455097,0.30732493757866597
88060.17025230295,88060.17025230295,88060.17025230295,88060.17025230295,0.1688201718954906,0.16665806496923696,0.1926696153340336,0.1790125205666036,0.6367209041630473,0.3056801046392867
88060.17525230296,88060.17525230296,88060.17525230296,88060.17525230296,0.1686462896254899,0.25739654800195755,0.19259556265143496,0.18544427946394987,0.6359832166255663,0.3659694780687277
88060.18025230296,88060.18025230296,88060.18025230296,88060.18025230296,0.16846064651188425,0.16607224870722898,0.19251100970700216,0.18525371731831372,0.635140929065189,0.36418320583073793
88060.18525230297,88060.18525230297,88060.18525230297,88060.18525230297,0.16826311034841987,0.16576191969704063,0.19241597618765738,0.18505253406087707,0.6341942375963117,0.36229737448523247
88060.19025230297,88060.19025230297,88060.19025230297,88060.19025230297,0.168053782884683,0.16544004880434515,0.19231047069327828,0.18484075188599602,0.6331432278879792,0.3603121920754299
88060.19525230298,88060.19525230298,88060.19525230298,88060.19525230298,0.16783258967724674,0.16510657491066422,0.19219450408096755,0.1846183953596783,0.631988008094941,0.3582278888756981
88060.20025230298,88060.20025230298,88060.20025230298,88060.20025230298,0.16759973044188156,0.2022759213880046,0.19206811024288872,0.18670454660909816,0.6307289158393572,0.377782843237943
88060.20525230299,88060.20525230299,88060.20525230299,88060.20525230299,0.16735502289212822,0.164405272441793,0.1919312965691147,0.1864641849827127,0.6293660247386107,0.37552976564555374
88060.21025230299,88060.21025230299,88060.21025230299,88060.21025230299,0.16709871098141163,0.16403752723789547,0.1917840857914581,0.18621349248119473,0.6278995612392563,0.3731798495368804
88060.215252303,88060.215252303,88060.215252303,88060.215252303,0.16683051888011444,0.1636582123734734,0.19162649993120182,0.18595250554732726,0.6263297447097952,0.37073343651560975
88060.220252303,88060.220252303,88060.220252303,88060.220252303,0.16655050080570824,0.16326739293789058,0.16824011797499933,0.17698353429118982,0.39336259334586443,0.2866609975499174
88060.225252303,88060.225252303,88060.225252303,88060.225252303,0.16625930255824062,0.16286570816735577,0.16803721769242946,0.17509182515090277,0.3913413700147069,0.26892868503650685
88060.23025230301,88060.23025230301,88060.23025230301,88060.23025230301,0.1659560828628905,0.1624523527433262,0.16782253173174652,0.17478298006723414,0.3892027417826101,0.26603366411325247
88060.23525230301,88060.23525230301,88060.23525230301,88060.23525230301,0.16564142135025597,0.16202790132037678,0.16759608816683166,0.17446334457702065,0.38694698831199187,0.26303749716446734
88060.24025230302,88060.24025230302,88060.24025230302,88060.24025230302,0.16531527778357918,0.16159232650508337,0.1673579022014787,0.17413295111821725,0.38457426105785447,0.25994048825378485
88060.24525230302,88060.24525230302,88060.24525230302,88060.24525230302,0.16497745916772869,0.16114545349445347,0.1671080006046062,0.17379184358749766,0.3820848266830242,0.2567430488554217
88060.25025230303,88060.25025230303,88060.25025230303,88060.25025230303,0.16462819870160286,0.16068751999056582,0.16684639927677802,0.1734400557148795,0.3794788435834883,0.25344549514441805
88060.25525230303,88060.25525230303,88060.25525230303,88060.25525230303,0.164267407589012,0.16021845226823275,0.1665731343542504,0.16596690489861074,0.3767566717362923,0.18339442708549933
88060.26025230304,88060.26025230304,88060.26025230304,88060.26025230304,0.16389532165267628,0.15973848991285947,0.16628823478639781,0.16557789135988177,0.3739185995252196,0.17974793117670274
88060.26525230304,88060.26525230304,88060.26525230304,88060.26525230304,0.16351166114930385,0.15924737544803352,0.16599172070499835,0.16517780614393915,0.37096482749616894,0.1759976526957237
88060.27025230305,88060.27025230305,88060.27025230305,88060.27025230305,0.16311654497907044,0.15874523600085033,0.1656836131731492,0.16476668399682956,0.3678955654725223,0.17214391734155327
88060.27525230305,88060.27525230305,88060.27525230305,88060.27525230305,0.16271050113528865,0.15823259120287045,0.1653639704953292,0.1643445949683586,0.3647113942635886,0.16818738174000025
88060.28025230306,88060.28025230306,88060.28025230306,88060.28025230306,0.16229310557176282,0.15770904539089453,0.16503281232069003,0.1612651018024673,0.3614125096075077,0.13932113901929832
88060.28525230306,88060.28525230306,88060.28525230306,88060.28525230306,0.1618643158364718,0.15717457052312248,0.16469016730925412,0.16081388329413412,0.3579991970056362,0.13509155243476406
88060.29025230306,88060.29025230306,88060.29025230306,88060.29025230306,0.16142438403132695,0.15662942078497205,0.16433606418743077,0.16035159534506951,0.3544717426206546,0.13075820424215903
88060.29525230307,88060.29525230307,88060.29525230307,88060.29525230307,0.2487693817105493,0.15607366542133294,0.17068890838464845,0.15987829837021972,0.4177566072250385,0.12632166075301837
88060.30025230307,88060.30025230307,88060.30025230307,88060.30025230307,0.1605112702700719,0.5142705706835928,0.1703269014450166,0.20105893149003054,0.41415041770594374,0.5123365297564977
88060.30525230308,88060.30525230308,88060.30525230308,88060.30525230308,0.1600380590122662,0.15493035448629885,0.16995405230882027,0.20066658895338693,0.4104362219269286,0.508658828822509
88060.31025230308,88060.31025230308,88060.31025230308,88060.31025230308,0.1595538260525517,0.15434288460498716,0.16957042790309887,0.20026611013089354,0.4066146865923065,0.5049048607921077
88060.31525230309,88060.31525230309,88060.31525230309,88060.31525230309,0.15905865385604248,0.15374499588446106,0.16917606494555534,0.19985756190731407,0.4026861774712963,0.5010752526229519
88060.32025230309,88060.32025230309,88060.32025230309,88060.32025230309,0.15855261350511005,0.153136768503152,0.16877100709764306,0.19944101739405887,0.39865112950438747,0.49717068963941263
88060.3252523031,88060.3252523031,88060.3252523031,88060.3252523031,0.15803568270275042,0.15251819401361136,0.16835530886378514,0.1990165591461671,0.3945100856460315,0.4931919456875969
88060.3302523031,88060.3302523031,88060.3302523031,88060.3302523031,0.1575080215255751,0.1518894371045762,0.16792902023606104,0.19858426659942494,0.39026354390025364,0.4891397653746727
88060.3352523031,88060.3352523031,88060.3352523031,88060.3352523031,0.15696949094521703,0.15125037884532627,0.16749218886463788,0.19814421826458412,0.38591197894174734,0.48501488463681286
88060.34025230311,88060.34025230311,88060.34025230311,88060.34025230311,0.1564202975331315,0.1506012279516423,0.16704486042516384,0.1976964915609013,0.38145584577572333,0.48081802917884425
88060.34525230312,88060.34525230312,88060.34525230312,88060.34525230312,0.1558606021007656,0.14994214915354284,0.16658710751938607,0.19724118578429692,0.3768958676359956,0.47655012977085975
88060.35025230312,88060.35025230312,88060.35025230312,88060.35025230312,0.1552901256528765,0.1492728920493192,0.16611897960238187,0.19677838300060596,0.3722325371771566,0.4722119556733137
88060.35525230312,88060.35525230312,88060.35525230312,88060.35525230312,0.1547092035680635,0.14859378638191412,0.16564051373289398,0.1963081558248838,0.3674662235657476,0.4678041875578949
88060.36025230313,88060.36025230313,88060.36025230313,88060.36025230313,0.38619543877012874,0.14790476084802529,0.18738268687466128,0.19583059451622883,0.584054328163753,0.46332767148624426
88060.36525230313,88060.36525230313,88060.36525230313,88060.36525230313,0.15351602537590694,0.14720608415011222,0.18694308203833807,0.1953458045315019,0.5796751348949599,0.45878339597925755
88060.37025230314,88060.37025230314,88060.37025230314,88060.37025230314,0.152903793659554,0.1464975373175359,0.18649483791573743,0.1948538693729263,0.5752098800063046,0.4541721437616608
88060.37525230314,88060.37525230314,88060.37525230314,88060.37525230314,0.15228137442000714,0.14577943722445605,0.1798938236895017,0.19435488510599816,0.5094528303147825,0.44949481532252117
88060.38025230315,88060.38025230315,88060.38025230315,88060.38025230315,0.7459696717197262,0.14505181669215977,0.25599017169463706,0.15019715199686703,1.0,0.03557350643881359
88060.38525230315,88060.38525230315,88060.38525230315,88060.38525230315,0.2734120712502539,0.4603792165941475,0.2619204875101574,0.18521820911733247,1.0,0.3638503626345091
88060.39025230316,88060.39025230316,88060.39025230316,88060.39025230316,0.4043894159132076,0.1435678674392442,0.2779063291758072,0.18467582515569247,1.0,0.35876621851042734
