timestamp,sample_timestamp,left_raw,right_raw
88057.0002523,88057.0002523,0.16958158151612446,0.1680667248390784
88057.0052523,88057.0052523,0.169475436525018,0.16784624353936248
88057.01025230001,88057.01025230001,0.1693573597630008,0.1676139932499807
88057.01525230001,88057.01525230001,0.1692274446284057,0.7129539383835052
88057.02025230002,88057.02025230002,0.1999413113684759,0.16711441100381816
88057.02525230002,88057.02525230002,0.16893167949142568,0.16684688248354193
88057.03025230003,88057.03025230003,0.16876604933526948,0.1665678426778857
88057.03525230003,88057.03525230003,0.16858847778291663,0.16627708240767416
88057.04025230004,88057.04025230004,0.16839895829280996,0.1659746071609826
88057.04525230004,88057.04525230004,0.1681978080913569,0.16566073930780284
88057.05025230005,88057.05025230005,0.16798464896911894,0.16533512023919752
88057.05525230005,88057.05525230005,0.16775974584232242,0.16499802096140698
88057.06025230006,88057.06025230006,0.16752310539026227,0.1646494596107073
88057.06525230006,88057.06525230006,0.16727446188434078,0.16428918887813426
88057.07025230007,88057.07025230007,0.16701455082004543,0.1639179374268317
88057.07525230007,88057.07525230007,0.35304085195609003,0.16353498970886413
88057.08025230007,88057.08025230007,0.2553599221530948,0.1631407288251205
88057.08525230008,88057.08525230008,0.16616401999391278,0.1627353054395776
88057.09025230008,88057.09025230008,0.16585718400898394,0.16231844170935755
88057.09525230009,88057.09525230009,0.1655387361675056,0.16189032091714586
88057.1002523001,88057.1002523001,0.6053043295511884,0.16145111665735465
88057.1052523001,88057.1052523001,0.3875252147120152,0.16100072761399953
88057.1102523001,88057.1102523001,0.1645145439003193,0.16053933163516299
88057.11525230011,88057.11525230011,0.1641500871496362,0.41269603361615553
88057.12025230011,88057.12025230011,0.1637742924866901,0.15958318983343014
88057.12525230012,88057.12525230012,0.16338705785233978,0.4926042314209047
88057.13025230012,88057.13025230012,0.16298863879501307,0.3727094922984223
88057.13525230013,88057.13525230013,0.16257877438655846,0.15806700312225375
88057.14025230013,88057.14025230013,0.19320308421680485,0.15753998889787393
88057.14525230014,88057.14525230014,0.16172531888080155,0.1570020103650721
88057.15025230014,88057.15025230014,0.1612820292359914,0.790162929957494
88057.15525230014,88057.15525230014,0.1608273788813996,0.15589441367903126
88057.16025230015,88057.16025230015,0.16036165597280688,0.1553246018009415
88057.16525230015,88057.16525230015,0.46409178010452723,0.15474428883624036
88057.17025230016,88057.17025230016,0.15939720928885331,0.15415349612927207
88057.17525230016,88057.17525230016,0.15889864615504332,0.15355238036164617
88057.18025230017,88057.18025230017,0.15838920250519767,0.15294091807463753
88057.18525230017,88057.18525230017,0.1578687352929689,0.44312333093656153
88057.19025230018,88057.19025230018,0.15733760452188958,0.1516869397897556
88057.19525230018,88057.19525230018,0.15679552616118794,0.15104452216053682
88057.20025230019,88057.20025230019,0.15624324623930647,0.15039245225531417
88057.20525230019,88057.20525230019,0.15567994969729265,0.14972997218317888
88057.2102523002,88057.2102523002,0.15510625330396458,0.1490576778334447
88057.2152523002,88057.2152523002,0.1545219267476706,0.14837536506855353
88057.2202523002,88057.2202523002,0.15392724419147466,0.1476833053302735
88057.22525230021,88057.22525230021,0.15332215499996923,0.1469814641093988
88057.23025230021,88057.23025230021,0.15270675578471826,0.15277526361086427
88057.23525230022,88057.23525230022,0.15208094838796776,0.145548671053695
88057.24025230022,88057.24025230022,0.1514450112832892,0.2630593499452641
88057.24525230023,88057.24525230023,0.15079874260379805,0.14407750309967715
88057.25025230023,88057.25025230023,0.15014284421831386,0.1433281032919929
88057.25525230024,88057.25525230024,0.14947667830053815,0.1425691343154894
88057.26025230024,88057.26025230024,0.18944294383932125,0.14180090667529965
88057.26525230025,88057.26525230025,0.1481145324106898,0.14102346663567356
88057.27025230025,88057.27025230025,0.14741872084317076,0.14023695241147263
88057.27525230026,88057.27525230026,0.146713305411081,0.13944154216967747
88057.28025230026,88057.28025230026,0.14599796942212345,0.1386369572779154
88057.28525230027,88057.28525230027,0.14527315387882872,0.21019526167792305
88057.29025230027,88057.29025230027,0.14453890561450908,0.1370015872199334
88057.29525230028,88057.29525230028,0.14379511862794225,0.13617077616457485
88057.30025230028,88057.30025230028,0.14304190040285242,0.13533130058025436
88057.30525230028,88057.30525230028,0.14227941257632937,0.13448332365202023
88057.31025230029,88057.31025230029,0.1415076875644459,0.13362688999430453
88057.3152523003,88057.3152523003,0.14072682824247607,0.13276210872116223
88057.3202523003,88057.3202523003,0.15829974066058256,0.1318891335152918
88057.3252523003,88057.3252523003,0.13913801231558978,0.13100784287040984
88057.33025230031,88057.33025230031,0.22321927149824625,0.13011847530313625
88057.33525230031,88057.33525230031,0.13751348765880858,0.6189189562680779
88057.34025230032,88057.34025230032,0.13668810843198625,0.12831588438340266
88057.34525230032,88057.34525230032,0.13585405491104457,0.8782487190827328
88057.35025230033,88057.35025230033,0.13501129688323393,0.4946922099341649
88057.35525230033,88057.35525230033,0.13416012641664912,0.1255533885710426
88057.36025230034,88057.36025230034,0.1333006001209839,0.12461739385122757
88057.36525230034,88057.36525230034,0.13243258679659317,0.12367379682409978
88057.37025230034,88057.37025230034,0.13155648293459302,0.12272296897630895
88057.37525230035,88057.37525230035,0.13067218520714355,0.12176483459806332
88057.38025230035,88057.38025230035,0.48882338434431866,0.12079944492228266
88057.38525230036,88057.38525230036,0.12887945272809911,0.11982711082518174
88057.39025230036,88057.39025230036,0.6310742798511311,0.11884767723790883
88057.39525230037,88057.39525230037,0.12705514675634327,0.6086092650287703
88057.40025230037,88057.40025230037,0.126131304471035,0.11686829657938026
88057.40525230038,88057.40525230038,0.12519992790855933,0.11586853888703465
88057.41025230038,88057.41025230038,0.12426114045099705,0.11486228969770483
88057.41525230039,88057.41525230039,0.12331476134765043,0.11384940960704437
88057.42025230039,88057.42025230039,0.12236114333478255,0.11283022526459613
88057.4252523004,88057.4252523004,0.1214002260924093,0.11180470315121203
88057.4302523004,88057.4302523004,0.17227377582016862,0.11077305066866906
88057.4352523004,88057.4352523004,0.11945713454965386,0.10973527815786549
88057.44025230041,88057.44025230041,0.11847513469711192,0.10869156484388358
88057.44525230041,88057.44525230041,0.3562865958718427,0.10764199868127489
88057.45025230042,88057.45025230042,0.1164906596331497,0.10658660858334566
88057.45525230042,88057.45525230042,0.11548836925870416,0.10552556474121877
88057.46025230043,88057.46025230043,0.11447964138848933,0.21011410467996172
88057.46525230043,88057.46525230043,0.11361207896758119,0.1033870740512835
88057.47025230044,88057.47025230044,0.4051552547510303,0.10230970232403151
88057.47525230044,88057.47525230044,0.11141487106267796,0.10122705208942043
88057.48025230045,88057.48025230045,0.11038093449619901,0.10013938692923192
88057.48525230045,88057.48525230045,0.10934091265194942,0.09904666845444338
88057.49025230046,88057.49025230046,0.14283580199475038,0.09794907401303678
88057.49525230046,88057.49525230046,0.1072431651606293,0.09684662231152101
88057.50025230047,88057.50025230047,0.10618568828855375,0.09573954640782552
88057.50525230047,88057.50525230047,0.10512252055993085,0.09462783772731388
88057.51025230048,88057.51025230048,0.10405393632653144,0.09351174368814574
88057.51525230048,88057.51525230048,0.10297985303066448,0.7040938549920015
88057.52025230048,88057.52025230048,0.10190050325993426,0.09126648858571472
88057.52525230049,88057.52525230049,0.10081595656975932,0.09013762216828981
88057.5302523005,88057.5302523005,0.09972637586487698,0.08900477944745265
88057.5352523005,88057.5352523005,0.09863177193017592,0.08786799648405483
88057.5402523005,88057.5402523005,0.09753230066163504,0.0867274236658818
88057.54525230051,88057.54525230051,0.09642809704476481,0.08558319434241995
88057.55025230051,88057.55025230051,0.09531929999768998,0.08443544422116102
88057.55525230052,88057.55525230052,0.0942058785145244,0.0832841802300884
88057.56025230052,88057.56025230052,0.09308806367438668,0.08212960869714064
88057.56525230053,88057.56525230053,0.1749952218400593,0.08097184473538324
88057.57025230053,88057.57025230053,0.09083966813780818,0.07981097856102774
88057.57525230054,88057.57525230054,0.08970919688953871,0.07864706778966962
88057.58025230054,88057.58025230054,0.08857491150348255,0.07748040546964803
88057.58525230055,88057.58525230055,0.08743670616755592,0.07631094982570422
88057.59025230055,88057.59025230055,0.08629474670004011,0.07513885564993548
88057.59525230055,88057.59525230055,0.08514914554473557,0.3212873121447847
88057.60025230056,88057.60025230056,0.0840000307417216,0.07278722735965092
88057.60525230056,88057.60525230056,0.08284755269239608,0.07160796125067136
88057.61025230057,88057.61025230057,0.08169173306867564,0.23179465301842464
88057.61525230057,88057.61525230057,0.08053278226792383,0.06924301494076691
88057.62025230058,88057.62025230058,0.07937078047359654,0.06805760966850892
88057.62525230058,88057.62525230058,0.07820585118185931,0.06687040406170001
88057.63025230059,88057.63025230059,0.07703806461073553,0.06568148940013464
88057.63525230059,88057.63525230059,0.07586758312788826,0.06449101214977424
88057.6402523006,88057.6402523006,0.07469453035797662,0.06329909442675839
88057.6452523006,88057.6452523006,0.07351900043234913,0.06210584253559743
88057.6502523006,88057.6502523006,0.07234111672648645,0.06091137905992369
88057.65525230061,88057.65525230061,0.44937862698542236,0.05971582361034576
88057.66025230061,88057.66025230061,0.06997876441394113,0.05851929829632631
88057.66525230062,88057.66525230062,0.06879452947198872,0.057321919273598455
88057.67025230062,88057.67025230062,0.0676084129393178,0.05612380767363953
88057.67525230063,88057.67525230063,0.06642053228442549,0.054925083495542266
88057.68025230063,88057.68025230063,0.06523104130193809,0.053725875735500285
88057.68525230064,88057.68525230064,0.06404001789988957,0.052526291232193455
88057.69025230064,88057.69025230064,0.06284756316162975,0.05132644939147029
88057.69525230065,88057.69525230065,0.06165383955604874,0.05018937006508344
88057.70025230065,88057.70025230065,0.06045896005434839,0.051073507554387505
88057.70525230066,88057.70525230066,0.05926301590256131,0.05227338365743898
88057.71025230066,88057.71025230066,0.058066159845863045,0.05347303580132368
88057.71525230067,88057.71525230067,0.056868490555859894,0.0546723386310708
88057.72025230067,88057.72025230067,0.05567013141254634,0.05587117095057522
88057.72525230068,88057.72525230068,0.05447120098812557,0.057069406794787746
88057.73025230068,88057.73025230068,0.05327184198949694,0.05826696431170549
88057.73525230068,88057.73525230068,0.052072145449408705,0.05946368001385494
88057.74025230069,88057.74025230069,0.05087223946221749,0.06065942531672011
88057.7452523007,88057.7452523007,0.05032774981382425,0.061854143273254995
88057.7502523007,88057.7502523007,0.0515277075602024,0.06304766015652262
88057.7552523007,88057.7552523007,0.05272751335894341,0.06423987604680462
88057.76025230071,88057.76025230071,0.0984388155640693,0.0654306751417558
88057.76525230071,88057.76525230071,0.05512618691742309,0.06661991338496996
88057.77025230072,88057.77025230072,0.05632481179392822,0.0678074893120261
88057.77525230072,88057.77525230072,0.05752280363468247,0.06899328472664751
88057.78025230073,88057.78025230073,0.05872005231368478,0.4613478529782399
88057.78525230073,88057.78525230073,0.05991642931251869,0.07135910206157987
88057.79025230074,88057.79025230074,0.06111179164045661,0.07253881695180997
88057.79525230074,88057.79525230074,0.06230607652192219,0.0737163465843072
88057.80025230075,88057.80025230075,0.06349911056403622,0.07489146429015033
88057.80525230075,88057.80525230075,0.06469077994246716,0.076064067239869
88057.81025230075,88057.81025230075,0.06588100449869244,0.0772341074501337
88057.81525230076,88057.81525230076,0.06706963078781616,0.07840140658405517
88057.82025230076,88057.82025230076,0.06825656903862165,0.07956589660658019
88057.82525230077,88057.82525230077,0.06944165990067225,0.08072739441130951
88057.83025230077,88057.83025230077,0.07062482877177315,0.08188585427958615
88057.83525230078,88057.83525230078,0.07180590065367254,0.08304107230885359
88057.84025230078,88057.84025230078,0.07298478674338128,0.08419297960656708
88057.84525230079,88057.84525230079,0.07416143722021873,0.08534156068161372
88057.85025230079,88057.85025230079,0.07533562256446079,0.08648653531602006
88057.8552523008,88057.8552523008,0.07650726836697984,0.08762785320292704
88057.8602523008,88057.8602523008,0.07767630413601107,0.08876546592169321
88057.8652523008,88057.8652523008,0.07884254594655285,0.08989916487684753
88057.87025230081,88057.87025230081,0.08000588630321036,0.09102885042097264
88057.87525230082,88057.87525230082,0.08116624783764216,0.09215446308233075
88057.88025230082,88057.88025230082,0.08232351706309403,0.0932758927753683
88057.88525230082,88057.88525230082,0.08347753469813632,0.12230605925435746
88057.89025230083,88057.89025230083,0.08462817884218994,0.09550557128867476
88057.89525230083,88057.89525230083,0.0857753989882584,0.0966136743962562
88057.90025230084,88057.90025230084,0.08691900812687911,0.09771707243229229
88057.90525230084,88057.90525230084,0.08805892342914991,0.09881569651848446
88057.91025230085,88057.91025230085,0.08919507306336923,0.09990949058729283
88057.91525230085,88057.91525230085,0.6406250395265969,0.10099822717350197
88057.92025230086,88057.92025230086,0.09145545899620314,0.10208194340142443
88057.92525230086,88057.92525230086,0.09257944211852198,0.2218389064986689
88057.93025230087,88057.93025230087,0.09369922952660503,0.10423352197746204
88057.93525230087,88057.93525230087,0.09481461423030613,0.10530122812427882
88057.94025230088,88057.94025230088,0.09592554261661335,0.10636343522006665
88057.94525230088,88057.94525230088,0.09703189563807818,0.107420026817454
88057.95025230089,88057.95025230089,0.09813347909531257,0.10847079543520181
88057.95525230089,88057.95525230089,0.09923026112371428,0.10951573181841406
88057.9602523009,88057.9602523009,0.10032217684656913,0.11055478517519408
88057.9652523009,88057.9652523009,0.10140901865223856,0.11158773280112429
88057.9702523009,88057.9702523009,0.10249077739076648,0.11261459074818299
88057.97525230091,88057.97525230091,0.10356724833513814,0.11363514076602675
88057.98025230091,88057.98025230091,0.10463833185810874,0.11464929091135435
88057.98525230092,88057.98525230092,0.10570394338743293,0.11565696670715567
88057.99025230092,88057.99025230092,0.10676404953846,0.6239884969662578
88057.99525230093,88057.99525230093,0.1078184139282794,0.1176525976009162
88058.00025230093,88058.00025230093,0.10886702274843257,0.11864030738406342
88058.00525230094,88058.00525230094,0.10990969074447894,0.11962109028197868
88058.01025230094,88058.01025230094,0.11094652379788136,0.12059509227728821
88058.01525230095,88058.01525230095,0.11197717845833982,0.1215619373617618
88058.02025230095,88058.02025230095,0.11300160953782165,0.1225215963712938
88058.02525230095,88058.02525230095,0.11401978641551946,0.12347405607473763
88058.03025230096,88058.03025230096,0.11503146871759694,0.12441906219494676
88058.03525230096,88058.03525230096,0.11603670617431906,0.12535669332704738
88058.04025230097,88058.04025230097,0.11703535269733113,0.1262868032886729
88058.04525230097,88058.04525230097,0.8235916202896916,0.1272093125151234
88058.05025230098,88058.05025230098,0.11901239958348353,0.12812400360611714
88058.05525230098,88058.05525230098,0.11999063830449538,0.12903095114005234
88058.06025230099,88058.06025230099,0.12096190963244777,0.12993003120551644
88058.06525230099,88058.06525230099,0.12192600824460918,0.13082103206720028
88058.070252301,88058.070252301,0.12288292818850466,0.13170396660535225
88058.075252301,88058.075252301,0.12383266191640568,0.13257884503787315
88058.080252301,88058.080252301,0.1247748617425473,0.13344529708104516
88058.08525230101,88058.08525230101,0.12570967457464124,0.13430350568924196
88058.09025230102,88058.09025230102,0.1266368851934966,0.13515324913442336
88058.09525230102,88058.09525230102,0.1275564126634644,0.13599445570543914
88058.10025230102,88058.10025230102,0.1284683093693761,0.13682720117839528
88058.10525230103,88058.10525230103,0.1293722352028666,0.13765112652393066
88058.11025230103,88058.11025230103,0.13026819882699237,0.1384662593353644
88058.11525230104,88058.11525230104,0.1311562240951883,0.13927264308493145
88058.12025230104,88058.12025230104,0.13203606158970171,0.140070020192195
88058.12525230105,88058.12525230105,0.13290773765138517,0.14085843666954423
88058.13025230105,88058.13025230105,0.1337712030870903,0.14163785498066825
88058.13525230106,88058.13525230106,0.13462613011040225,0.14240793304688318
88058.14025230106,88058.14025230106,0.13547271681027304,0.1431689039037636
88058.14525230107,88058.14525230107,0.13631067861449922,0.14392047326087806
88058.15025230107,88058.15025230107,0.13714001868477807,0.14466266080987678
88058.15525230108,88058.15525230108,0.13796066265603038,0.1453954016002648
88058.16025230108,88058.16025230108,0.13877254046601106,0.14611863524747473
88058.16525230109,88058.16525230109,0.13957554567357755,0.6252139014413535
88058.17025230109,88058.17025230109,0.14036951852441945,0.24304784997326365
88058.1752523011,88058.1752523011,0.14115455867835822,0.14823034621669878
88058.1802523011,88058.1802523011,0.14193043633449273,0.14891469394850804
88058.1852523011,88058.1852523011,0.1426970841368166,0.1495891106205808
88058.19025230111,88058.19025230111,0.14345437669620487,0.15025347669031575
88058.19525230111,88058.19525230111,0.14420249000948668,0.15090799580756725
88058.20025230112,88058.20025230112,0.14494124004844344,0.15155248490058718
88058.20525230112,88058.20525230112,0.14567031138563188,0.15218662125482754
88058.21025230113,88058.21025230113,0.146389896463131,0.1528106253043974
88058.21525230113,88058.21525230113,0.14709989715324584,0.15342440643838917
88058.22025230114,88058.22025230114,0.14780005997800955,0.15402770894003281
88058.22525230114,88058.22525230114,0.14849047246466965,0.1546206403652398
88058.23025230115,88058.23025230115,0.46424498381483725,0.15520316521913452
88058.23525230115,88058.23525230115,0.14984172885652217,0.15577510846682316
88058.24025230116,88058.24025230116,0.1505025612050963,0.15633666032162255
88058.24525230116,88058.24525230116,0.1511531405043135,0.7598760316348729
88058.25025230116,88058.25025230116,0.15179342970028029,0.15742719437846192
88058.25525230117,88058.25525230117,0.15242397151301057,0.2517464039466853
88058.26025230117,88058.26025230117,0.15304422271721999,0.6980093565650248
88058.26525230118,88058.26525230118,0.15365393569765154,0.15898303802301983
88058.27025230118,88058.27025230118,0.15425342550395307,0.1594798924013695
88058.27525230119,88058.27525230119,0.39626016377406764,0.1599657045693623
88058.28025230119,88058.28025230119,0.15542099468969167,0.16044062915561527
88058.2852523012,88058.2852523012,0.15598896698402293,0.16090442575653477
88058.2902523012,88058.2902523012,0.1565462825124797,0.65670906081492
88058.2952523012,88058.2952523012,0.15709301976064308,0.1617986614168181
88058.30025230121,88058.30025230121,0.15762913713685445,0.16222916472538698
88058.30525230122,88058.30525230122,0.2856695294331843,0.23993019814604627
88058.31025230122,88058.31025230122,0.15866889581852361,0.1630563197775313
88058.31525230122,88058.31525230122,0.15917243103336215,0.1634528869461214
88058.32025230123,88058.32025230123,0.1596649957292021,0.16383805363334375
88058.32525230123,88058.32525230123,0.16014670809688802,0.16421195512501732
88058.33025230124,88058.33025230124,0.16061740532821447,0.16457443491048257
88058.33525230124,88058.33525230124,0.1610770337922236,0.1649254499529718
88058.34025230125,88058.34025230125,0.16152565961871754,0.165265081041011
88058.34525230125,88058.34525230125,0.4226066462224951,0.16559300982523112
88058.35025230126,88058.35025230126,0.16238906204304773,0.16590937145993434
88058.35525230126,88058.35525230126,0.16280400562659433,0.1662142281290887
88058.36025230127,88058.36025230127,0.1632077339281195,0.1665075303548576
88058.36525230127,88058.36525230127,0.16360005699420616,0.16678909481763804
88058.37025230128,88058.37025230128,0.16398098404388203,0.16705894339523322
88058.37525230128,88058.37525230128,0.16435062606709996,0.16731720217153187
88058.38025230129,88058.38025230129,0.1647086875072427,0.16756357994212964
88058.38525230129,88058.38525230129,0.16505534028880908,0.16779826518466048
88058.3902523013,88058.3902523013,0.16539049183908447,0.16802117504438893
88058.3952523013,88058.3952523013,0.3945521645043302,0.16823236583774687
88058.4002523013,88058.4002523013,0.16602622435834866,0.16843164788503018
88058.40525230131,88058.40525230131,0.16632658207660586,0.16861900684269165
88058.41025230131,88058.41025230131,0.16661543155207226,0.1687946308178487
88058.41525230132,88058.41525230132,0.16689266537812683,0.16895842197160776
88058.42025230132,88058.42025230132,0.1671580264042144,0.16911013051591145
88058.42525230133,88058.42525230133,0.16741182329800683,0.169250082296035
88058.43025230133,88058.43025230133,0.20808038363660236,0.1693780892342414
88058.43525230134,88058.43525230134,0.16788396087841975,0.16949398644715716
88058.44025230134,88058.44025230134,0.16810242182745952,0.16959808441522348
88058.44525230135,88058.44525230135,0.16830905542672847,0.16969020525672265
88058.45025230135,88058.45025230135,0.1685038890619232,0.16977038836379627
88058.45525230136,88058.45525230136,0.1686869983445981,0.17829684858394312
88058.46025230136,88058.46025230136,0.5412112995609788,0.1698948252350421
88058.46525230136,88058.46525230136,0.16901713398727633,0.16993896684458615
88058.47025230137,88058.47025230137,0.16916450782269557,0.16997125268901841
88058.47525230137,88058.47525230137,0.16929984068015078,0.16999141601934217
88058.48025230138,88058.48025230138,0.16942330975102537,0.16999964684817678
88058.48525230138,88058.48525230138,0.169534786492027,0.5914257583968443
88058.49025230139,88058.49025230139,0.16963439177767783,0.16998009087522112
88058.49525230139,88058.49525230139,0.16972211423021022,0.16995243694288611
88058.5002523014,88058.5002523014,0.16979775217864138,0.16991267513104708
88058.5052523014,88058.5052523014,0.1698612725601456,0.1698607842392351
88058.5102523014,88058.5102523014,0.16991299658315331,0.5985518386532914
88058.51525230141,88058.51525230141,0.16995273503271038,0.16972143584139932
88058.52025230142,88058.52025230142,0.1699804032486001,0.8146688837995858
88058.52525230142,88058.52525230142,0.316279181781693,0.1695340209799622
88058.53025230143,88058.53025230143,0.16999970282426713,0.16942238994980657
88058.53525230143,88058.53525230143,0.16999142618728982,0.16929887520084808
88058.54025230143,88058.54025230143,0.3531487943863211,0.16916333731015068
88058.54525230144,88058.54525230144,0.16993880873491352,0.16901600107737136
88058.55025230144,88058.55025230144,0.16989439714493604,0.16885659475100012
88058.55525230145,88058.55525230145,0.1698380261169281,0.16868533266566282
88058.56025230145,88058.56025230145,0.5393741034463064,0.1685022787035024
88058.56525230146,88058.56525230146,0.16968954573561842,0.16830742546520033
88058.57025230146,88058.57025230146,0.16959729018196298,0.1681006587295922
88058.57525230147,88058.57525230147,0.16949313133776303,0.16788213764466112
88058.58025230147,88058.58025230147,0.16937702940312432,0.16765183443449522
88058.58525230148,88058.58525230148,0.16924886008126377,0.167409638273942
88058.59025230148,88058.59025230148,0.1691088898150865,0.16715582322779288
88058.59525230149,88058.59525230149,0.16895695034752556,0.16689023524788188
88058.60025230149,88058.60025230149,0.1687930632102515,0.16661290727344646
88058.6052523015,88058.6052523015,0.16861748342862584,0.16632410122327038
88058.6102523015,88058.6102523015,0.16843001521453418,0.3824770167009329
88058.6152523015,88058.6152523015,0.16823042357639229,0.16571129464732684
88058.62025230151,88058.62025230151,0.1680193292725641,0.16538769534551614
88058.62525230151,88058.62525230151,0.19948571853438718,0.16505250703302926
88058.63025230152,88058.63025230152,0.2865841063078878,0.1647057564208604
88058.63525230152,88058.63525230152,0.16731502250667082,0.1643475036972393
88058.64025230153,88058.64025230153,0.16705671326084112,0.16397781252468868
88058.64525230153,88058.64525230153,0.16678672301639638,0.1635967476210744
88058.65025230154,88058.65025230154,0.16650498356768,0.16320425450738954
88058.65525230154,88058.65525230154,0.16621181546477004,0.16280065646539477
88058.66025230155,88058.66025230155,0.16590671525994152,0.16238547657328992
88058.66525230155,88058.66525230155,0.1655902605627697,0.16195928720946748
88058.67025230156,88058.67025230156,0.16526214315844148,0.1615218014522797
88058.67525230156,88058.67525230156,0.16492250460453683,0.16107316847104602
88058.68025230156,88058.68025230156,0.16457148636723998,0.16061353689943664
88058.68525230157,88058.68525230157,0.16420886576674876,0.1601427037548279
88058.69025230157,88058.69025230157,0.16383493934359142,0.15966096729166326
88058.69525230158,88058.69525230158,0.16344954193591557,0.2998113722418805
88058.70025230158,88058.70025230158,0.7581665577570316,0.15866456049915847
88058.70525230159,88058.70525230159,0.264060293083448,0.5329554225870363
88058.7102523016,88058.7102523016,0.1622255808908738,0.15762465714089124
88058.7152523016,88058.7152523016,0.16179491617260033,0.1570883850806903
88058.7202523016,88058.7202523016,0.16135336118210653,0.15654168124968207
88058.7252523016,88058.7252523016,0.1609005545779097,0.15598421184638145
88058.73025230161,88058.73025230161,0.16043665477383812,0.18328934794991458
88058.73525230162,88058.73525230162,0.15996167890213417,0.15483749760386722
88058.74025230162,88058.74025230162,0.15947573269644735,0.15424839512769867
88058.74525230163,88058.74525230163,0.15897881207412443,0.1536488422612599
88058.75025230163,88058.75025230163,0.1584710158705985,0.15303894576550933
88058.75525230163,88058.75525230163,0.15795235117177842,0.15241872506936796
88058.76025230164,88058.76025230164,0.15742289527724634,0.15178826638000856
88058.76525230164,88058.76525230164,0.44499462360264547,0.15114746348486474
88058.77025230165,88058.77025230165,0.1563318408177441,0.15049690524943013
88058.77525230165,88058.77525230165,0.15577046880812373,0.14983624274086763
88058.78025230166,88058.78025230166,0.15519826918493465,0.14916536008517678
88058.78525230166,88058.78525230166,0.15461565010504258,0.1484846556905407
88058.79025230167,88058.79025230167,0.15402246927793536,0.14779400869129666
88058.79525230167,88058.79525230167,0.15341915206863388,0.14709383222028105
88058.80025230168,88058.80025230168,0.1528053742389778,0.1463838347084162
88058.80525230168,88058.80525230168,0.1521813618255127,0.14566424177397536
88058.81025230169,88058.81025230169,0.1515470494406987,0.1449350057137278
88058.81525230169,88058.81525230169,0.1509025104075248,0.3567661821943542
88058.8202523017,88058.8202523017,0.15024797764752662,0.14344808291394892
88058.8252523017,88058.8252523017,0.14958343132619573,0.1426906224357189
88058.8302523017,88058.8302523017,0.148908829839856,0.5518762692986322
88058.83525230171,88058.83525230171,0.2733376916704423,0.14114790537691055
88058.84025230171,88058.84025230171,0.1475302820901492,0.1403629050611834
88058.84525230172,88058.84525230172,0.14682625253423431,0.13956877766847883
88058.85025230172,88058.85025230172,0.14611234767390865,0.13876551549409158
88058.85525230173,88058.85525230173,0.14538935539232378,0.13795386053924383
88058.86025230173,88058.86025230173,0.14465649911093895,0.13713311001563658
88058.86525230174,88058.86525230174,0.42595759075309697,0.13630362908505184
88058.87025230174,88058.87025230174,0.36822505568387176,0.1354655443576182
88058.87525230175,88058.87525230175,0.14240142127125088,0.1346188998989269
88058.88025230175,88058.88025230175,0.14163128170664258,0.13376391664977139
88058.88525230176,88058.88525230176,0.1408518150228037,0.1329004070263674
88058.89025230176,88058.89025230176,0.14006332331626548,0.3095979015786063
88058.89525230177,88058.89525230177,0.13926580279635442,0.1311486944166826
88058.90025230177,88058.90025230177,0.1384594162157744,0.1302606666166371
88058.90525230177,88058.90525230177,0.13764412710489637,0.1293645613572792
88058.91025230178,88058.91025230178,0.1368201251757026,0.12846056634905198
88058.91525230178,88058.91525230178,0.13598745781017868,0.1275487401424734
88058.92025230179,88058.92025230179,0.1351460907646545,0.12662906803985016
88058.9252523018,88058.9252523018,0.13429624970825982,0.125701769686167
88058.9302523018,88058.9302523018,0.1334380531831618,0.12476696767880181
88058.9352523018,88058.9352523018,0.13257135394399616,0.12382454664818149
88058.9402523018,88058.9402523018,0.1316964614414629,0.1228748005302145
88058.94525230181,88058.94525230181,0.1308135083863842,0.1219178641942545
88058.95025230182,88058.95025230182,0.1299223869622252,0.12095365851738908
88058.95525230182,88058.95525230182,0.12902332536651295,0.11998240361293754
88058.96025230183,88058.96025230183,0.12811631584853408,0.11900411003674385
88058.96525230183,88058.96525230183,0.12720150329799434,0.11801892366541548
88058.97025230183,88058.97025230183,0.12627903398708293,0.1170269910839996
88058.97525230184,88058.97525230184,0.12534879852739603,0.11602823435901131
88058.98025230184,88058.98025230184,0.1244110943441212,0.11502293296242432
88058.98525230185,88058.98525230185,0.1752710621935546,0.11401117011669706
88058.99025230185,88058.99025230185,0.5419959469423719,0.11299293313348495
88058.99525230186,88058.99525230186,0.12155377389713622,0.11196847256292972
88059.00025230186,88059.00025230186,0.12058688672506865,0.11093778151605926
88059.00525230187,88059.00525230187,0.11961291819565764,0.10990097713811033
88059.01025230187,88059.01025230187,0.11863200103365523,0.10885819364972649
88059.01525230188,88059.01525230188,0.11764422586783112,0.10780952880925207
88059.02025230188,88059.02025230188,0.11664966315335154,0.10675506331800337
88059.02525230189,88059.02525230189,0.11564847360372328,0.10569495482481395
88059.03025230189,88059.03025230189,0.11464077014520681,0.10462931981673083
88059.0352523019,88059.0352523019,0.2701370734563002,0.10355811773034623
88059.0402523019,88059.0402523019,0.11260592374026775,0.10248164214248343
88059.0452523019,88059.0452523019,0.17828113423119774,0.10139977926286207
88059.05025230191,88059.05025230191,0.11054604246592396,0.10031297831956469
88059.05525230191,88059.05525230191,0.10950691874369314,0.09922100419880622
88059.06025230192,88059.06025230192,0.4171058810011405,0.11119844641594107
88059.06525230192,88059.06525230192,0.10741109669412935,0.09702254242038445
88059.07025230193,88059.07025230193,0.10635445525363448,0.0959161487297578
88059.07525230193,88059.07525230193,0.10529221040057228,0.09480518968194906
88059.08025230194,88059.08025230194,0.1042244689477312,0.4432479961157534
88059.08525230194,88059.08525230194,0.10315129487280311,0.8655213906495806
88059.09025230195,88059.09025230195,0.10207274428906432,0.09144588917378384
88059.09525230195,88059.09525230195,0.1009889337091456,0.0903176066419343
88059.10025230196,88059.10025230196,0.09990022088390785,0.08918544785028634
88059.10525230196,88059.10525230196,0.09880643623058169,0.08804930564556153
88059.11025230197,88059.11025230197,0.09770772454563291,0.08690932236245218
88059.11525230197,88059.11525230197,0.0966042620392726,0.085765663788135
88059.12025230197,88059.12025230197,0.0954961843959559,0.08461846322060688
88059.12525230198,88059.12525230198,0.09438351374222412,0.08346776760725123
88059.13025230198,88059.13025230198,0.09326638632930466,0.08231371151196452
88059.13525230199,88059.13525230199,0.09214495718653185,0.08115644281472177
88059.140252302,88059.140252302,0.0910193569519,0.07999609023287821
88059.145252302,88059.145252302,0.08988955517100976,0.07883266529696437
88059.150252302,88059.150252302,0.08875586196782685,0.07766642771033937
88059.15525230201,88059.15525230201,0.0876182270178836,0.07649737606030363
88059.16025230201,88059.16025230201,0.08647685717259505,0.07532569386732132
88059.16525230202,88059.16525230202,0.08533183313080658,0.07415147462464308
88059.17025230202,88059.17025230202,0.4952539095589614,0.07297483807270902
88059.17525230203,88059.17525230203,0.08303134128831308,0.07179593562091219
88059.18025230203,88059.18025230203,0.08187606284227764,0.07061482405239665
88059.18525230204,88059.18525230204,0.08071758050682423,0.0694316408236144
88059.19025230204,88059.19025230204,0.07955604587967535,0.06824652696276225
88059.19525230204,88059.19525230204,0.07839147581089242,0.06705954055775974
88059.20025230205,88059.20025230205,0.3155484700054593,0.06587094056163968
88059.20525230205,88059.20525230205,0.07605418912796078,0.0646807209709374
88059.21025230206,88059.21025230206,0.07488153290989867,0.06348902171880827
88059.21525230206,88059.21525230206,0.07370637185083549,0.06229596486413978
88059.22025230207,88059.22025230207,0.07252884999310884,0.2952585113728848
88059.22525230207,88059.22525230207,0.07134910363918236,0.0599063066713072
88059.23025230208,88059.23025230208,0.07016718772909894,0.058709922252620166
88059.23525230208,88059.23525230208,0.06898327826966344,0.05751267702854375
88059.24025230209,88059.24025230209,0.06779746310215437,0.056314676975434595
88059.24525230209,88059.24525230209,0.06660986478776959,0.055116044109212496
88059.2502523021,88059.2502523021,0.06542059611958007,0.05391689725395636
88059.2552523021,88059.2552523021,0.06422978504584723,0.4368982328367689
88059.2602523021,88059.2602523021,0.06303752140247312,0.05151754885767423
88059.26525230211,88059.26525230211,0.09355260840684357,0.05031759557210159
88059.27025230211,88059.27025230211,0.060649327701410974,0.050882395066143005
88059.27525230212,88059.27525230212,0.059453547303136144,0.052082296439814005
88059.28025230212,88059.28025230212,0.05825683238384699,0.05328199235798308
88059.28525230213,88059.28525230213,0.756903656184845,0.054481361518928406
88059.29025230213,88059.29025230213,0.05586102890762269,0.05568027487325058
88059.29525230214,88059.29525230214,0.05466219091197144,0.05687862729101064
88059.30025230214,88059.30025230214,0.05346288490388685,0.05807629019216215
88059.30525230215,88059.30525230215,0.0522632307468272,0.05927313929176309
88059.31025230215,88059.31025230215,0.0510633523274704,0.45374272375705205
88059.31525230216,88059.31525230216,0.050187117083448606,0.06166395252037659
88059.32025230216,88059.32025230216,0.05133660410700018,0.06285766646384561
88059.32525230217,88059.32525230217,0.05253644142168659,0.06405009043774422
88059.33025230217,88059.33025230217,0.053736024647848886,0.06524111010401125
88059.33525230217,88059.33525230217,0.05493523869575505,0.06643062189416643
88059.34025230218,88059.34025230218,0.05613395475235426,0.06761847384555038
88059.34525230218,88059.34525230218,0.057332061881399596,0.06880457655899858
88059.35025230219,88059.35025230219,0.058529424761063285,0.06998877147379619
88059.3552523022,88059.3552523022,0.05972593954018521,0.07117098077031181
88059.3602523022,88059.3602523022,0.0609214729707933,0.07235105572909413
88059.3652523022,88059.3652523022,0.06211593783824092,0.07352894351384967
88059.37025230221,88059.37025230221,0.0633091901505635,0.11631503245172199
88059.37525230221,88059.37525230221,0.06450109754105797,0.07587750810720302
88059.38025230222,88059.38025230222,0.4558362829973943,0.07704796336113887
88059.38525230222,88059.38525230222,0.06688044153995348,0.07821569412308467
88059.39025230223,88059.39025230223,0.06806764083193056,0.07938061348755013
88059.39525230223,88059.39525230223,0.5219717389432261,0.08054260165319722
88059.40025230224,88059.40025230224,0.07043651114811943,0.08170153907174793
88059.40525230224,88059.40525230224,0.07161792697190167,0.08285728458864444
88059.41025230224,88059.41025230224,0.07279716767260086,0.08400972506908949
88059.41525230225,88059.41525230225,0.07397419043121581,0.0851588565043065
88059.42025230225,88059.42025230225,0.07514879572093029,0.8198909230910421
88059.42525230226,88059.42525230226,0.0763208448124912,0.08744633615191676
88059.43025230226,88059.43025230226,0.07749028363930494,0.08858451787867909
88059.43525230227,88059.43525230227,0.07865698841820754,0.42337979033652995
88059.44025230227,88059.44025230227,0.07982081603185325,0.09084921824661546
88059.44525230228,88059.44525230228,0.08098168384410502,0.341044871512551
88059.45025230228,88059.45025230228,0.08213941467187892,0.09309757075726753
88059.45525230229,88059.45525230229,0.08329391196509425,0.09421528652041407
88059.46025230229,88059.46025230229,0.08444515318006017,0.24918446202344044
88059.4652523023,88059.4652523023,0.0855929245444549,0.0964375029653465
88059.4702523023,88059.4702523023,0.08673712054468145,0.09754166298766116
88059.4752523023,88059.4752523023,0.08787760505275466,0.09864102041626348
88059.48025230231,88059.48025230231,0.08901439458863647,0.09973563276783837
88059.48525230231,88059.48525230231,0.09014719974011128,0.1008251656785892
88059.49025230232,88059.49025230232,0.09127601424171632,0.10190964683312648
88059.49525230232,88059.49525230232,0.0924007014276826,0.10298893754427126
88059.50025230233,88059.50025230233,0.0935211555856837,0.10406293820328726
88059.50525230233,88059.50525230233,0.09463731155679568,0.11632866642125504
88059.51025230234,88059.51025230234,0.15952776213081515,0.106194607545238
88059.51525230234,88059.51525230234,0.09685599193774147,0.10725211532230339
88059.52025230235,88059.52025230235,0.09795837231323606,0.10830385477253272
88059.52525230235,88059.52525230235,0.09905588638118533,0.1093496785332893
88059.53025230236,88059.53025230236,0.10014862170808453,0.11038972086344434
88059.53525230236,88059.53525230236,0.10123627428186435,0.11142364217906424
88059.54025230237,88059.54025230237,0.10231883198609396,0.11245145559376324
88059.54525230237,88059.54525230237,0.10339614462663187,0.11347300797241416
88059.55025230238,88059.55025230238,0.10446809010694699,0.11448818038200041
88059.55525230238,88059.55525230238,0.10553460984171627,0.11549692901803965
88059.56025230238,88059.56025230238,0.10659552315376904,0.1164990657350076
88059.56525230239,88059.56525230239,0.10765089400690091,0.11749469010392147
88059.5702523024,88059.5702523024,0.1087004481425828,0.1184835042544373
88059.5752523024,88059.5752523024,0.10974407704146165,0.11946540575804791
88059.5802523024,88059.5802523024,0.11078182915642121,0.12044047422710116
88059.58525230241,88059.58525230241,0.2846678235968317,0.12140838094141086
88059.59025230241,88059.59025230241,0.11283884366073407,0.12236920592321385
88059.59525230242,88059.59525230242,0.2094603612081518,0.12332280306541245
88059.60025230242,88059.60025230242,0.11487078711016449,0.12426906441002504
88059.60525230243,88059.60525230243,0.4466477123648998,0.125207855607146
88059.61025230243,88059.61025230243,0.1347869185799049,0.1261392292990606
88059.61525230244,88059.61525230244,0.11786979328453258,0.12706291022407223
88059.62025230244,88059.62025230244,0.11885596171798608,0.12797883613074124
88059.62525230245,88059.62525230245,0.11983527628973806,0.12888700029926697
88059.63025230245,88059.63025230245,0.3092927632933424,0.12978731647830824
88059.63525230245,88059.63525230245,0.12177291523267168,0.13067963760840534
88059.64025230246,88059.64025230246,0.1227310807291951,0.13156397029605937
88059.64525230246,88059.64525230246,0.12368184559166842,0.13244000353312071
88059.65025230247,88059.65025230247,0.12462528493401236,0.13330784065719967
88059.65525230247,88059.65525230247,0.12556128216503054,0.13416736980191002
88059.66025230248,88059.66025230248,0.12648975730105655,0.6147694381749749
88059.66525230248,88059.66525230248,0.12741048567990665,0.3596236398662035
88059.67025230249,88059.67025230249,0.1283235317052193,0.13669507853543755
88059.67525230249,88059.67525230249,0.12922872410749184,0.5024388590360854
88059.6802523025,88059.6802523025,0.13012609591848545,0.25952952055865897
88059.6852523025,88059.6852523025,0.1310152910887776,0.1391447629882429
88059.6902523025,88059.6902523025,0.13189656275085523,0.13994371641952164
88059.69525230251,88059.69525230251,0.13276951635627185,0.14073353431981797
88059.70025230251,88059.70025230251,0.1336341976334691,0.1415142840491185
88059.70525230252,88059.70525230252,0.13449051254107533,0.14228587922412328
88059.71025230252,88059.71025230252,0.15462104932145537,0.14304837031163634
88059.71525230253,88059.71525230253,0.13617780006014774,0.1438014055071975
88059.72025230253,88059.72025230253,0.13700852337296354,0.1445450971457182
88059.72525230254,88059.72525230254,0.13783055308110584,0.14527934223219718
88059.73025230254,88059.73025230254,0.13864386320635683,0.1460041281683215
88059.73525230255,88059.73525230255,0.13944825656149232,0.14671925688997922
88059.74025230255,88059.74025230255,0.14024353477392396,0.1474245298187588
88059.74525230256,88059.74525230256,0.14103006976826127,0.14812036389767258
88059.75025230256,88059.75025230256,0.14180734656209867,0.14880621855575982
88059.75525230257,88059.75525230257,0.14257558363106415,0.4501480507814608
88059.76025230257,88059.76025230257,0.14333444493480957,0.1501483946170242
88059.76525230258,88059.76525230258,0.14408408782405333,0.1508045534477852
88059.77025230258,88059.77025230258,0.14482417969574665,0.15145047896964406
88059.77525230258,88059.77525230258,0.14555480285403086,0.15208627424952442
88059.78025230259,88059.78025230259,0.5134954878763316,0.15271191494271236
88059.7852523026,88059.7852523026,0.37668865342970265,0.15332735936305195
88059.7902523026,88059.7902523026,0.14768918595158295,0.15393230232349892
88059.7952523026,88059.7952523026,0.14838119096378588,0.1545269266974302
88059.80025230261,88059.80025230261,0.14906338008350065,0.15511112197466675
88059.80525230261,88059.80525230261,0.14973558038672063,0.15568471870342318
88059.81025230262,88059.81025230262,0.15039780283059276,0.15624774259243776
88059.81525230262,88059.81525230262,0.1510502154426349,0.15680038494651355
88059.82025230263,88059.82025230263,0.15169226992920767,0.1573420796498634
88059.82525230263,88059.82525230263,0.15232428843818085,0.15787318087965815
88059.83025230264,88059.83025230264,0.1529460535857979,0.15839347263868825
88059.83525230264,88059.83525230264,0.15355753997161506,0.1589029416721187
88059.84025230265,88059.84025230265,0.15415866983369883,0.15940151952064077
88059.84525230265,88059.84525230265,0.1547493258905782,0.1598890963552947
88059.85025230265,88059.85025230265,0.15532939534082435,0.1603655673214977
88059.85525230266,88059.85525230266,0.15589901108732082,0.16083108500743018
88059.86025230266,88059.86025230266,0.24588494486309392,0.6060721016559605
88059.86525230267,88059.86525230267,0.15700673659073078,0.16172915973728366
88059.87025230267,88059.87025230267,0.15754445616797122,0.16216133480094083
88059.87525230268,88059.87525230268,0.1580713864156577,0.3967579152931022
88059.88025230268,88059.88025230268,0.15858762521352135,0.16299204236251782
88059.88525230269,88059.88525230269,0.1590929006698015,0.16339041924660078
88059.89025230269,88059.89025230269,0.15958733159208965,0.1637775244064391
88059.8952523027,88059.8952523027,0.1600707378350574,0.1641531833643021
88059.9002523027,88059.9002523027,0.1605432709948277,0.21434376998262694
88059.9052523027,88059.9052523027,0.161004629204931,0.16487037167305935
88059.91025230271,88059.91025230271,0.16145488058918234,0.16521168390915644
88059.91525230272,88059.91525230272,0.16189399458675796,0.16554148340244768
88059.92025230272,88059.92025230272,0.16232200717290435,0.1658598195867169
88059.92525230272,88059.92525230272,0.16273879716704287,0.1661665795396388
88059.93025230273,88059.93025230273,0.16314414891142168,0.16646155351054753
88059.93525230273,88059.93525230273,0.16353824542646278,0.16674494237886225
88059.94025230274,88059.94025230274,0.16392109555384762,0.16701676720114483
88059.94525230274,88059.94525230274,0.6345895448223771,0.2664352363769408
88059.95025230275,88059.95025230275,0.16465241937089328,0.16752511828257
88059.95525230275,88059.95525230275,0.16500085829061725,0.1677616333459128
88059.96025230276,88059.96025230276,0.16533787931621205,0.24825983395665835
88059.96525230276,88059.96525230276,0.16566333836398123,0.16819945204058429
88059.97025230277,88059.97025230277,0.16597725490240006,0.16840065200147183
88059.97525230277,88059.97525230277,0.16627953168522072,0.1685899689879232
88059.98025230278,88059.98025230278,0.16657024833917458,0.16876749613095987
88059.98525230278,88059.98525230278,0.16684916250646262,0.16893299834773065
88059.99025230278,88059.99025230278,0.1671165292824056,0.16908674730236511
88059.99525230279,88059.99525230279,0.16737223774913473,0.16922864170225682
88060.0002523028,88060.0002523028,0.16761605423956075,0.16935845598570218
88060.0052523028,88060.0052523028,0.723458159945725,0.16947637364451698
88060.0102523028,88060.0102523028,0.16806841572962164,0.43157901997613457
88060.01525230281,88060.01525230281,0.16827702990986085,0.6911628629279072
88060.02025230281,88060.02025230281,0.16847369413497554,0.1697584624954359
88060.02525230282,88060.02525230282,0.16865861494700668,0.16982862595180784
88060.03025230282,88060.03025230282,0.1688315094867121,0.16988664455838265
88060.03525230283,88060.03525230283,0.16899261389351014,0.16993276842119506
88060.04025230283,88060.04025230283,0.16914183539526675,0.16996691548048518
88060.04525230284,88060.04525230284,0.16927907252400742,0.1699889951905684
88060.05025230284,88060.05025230284,0.16940445258519235,0.16999914729741955
88060.05525230285,88060.05525230285,0.16951777031388426,0.16999717707539377
88060.06025230285,88060.06025230285,0.16961946627248595,0.45301584394444355
88060.06525230285,88060.06525230285,0.16970886244975208,0.36696648440591756
88060.07025230286,88060.07025230286,0.16978646992261245,0.16991977305409067
88060.07525230286,88060.07525230286,0.1698520563787183,0.16986994933097263
88060.08025230287,88060.08025230287,0.16990549700364074,0.16980797807258458
88060.08525230287,88060.08525230287,0.16994713281660742,0.16973421165932406
88060.09025230288,88060.09025230288,0.1699767150127152,0.16964841299035321
88060.09525230288,88060.09525230288,0.16999426379590382,0.16955061386679277
88060.10025230289,88060.10025230289,0.16999994040297509,0.1694409864261695
88060.10525230289,88060.10525230289,0.1699934403519448,0.16931923903701582
88060.1102523029,88060.1102523029,0.16997507465953451,0.1691856927211393
88060.1152523029,88060.1152523029,0.16994473803925256,0.1690402541417175
88060.1202523029,88060.1202523029,0.16990222032294017,0.16888272636401666
88060.12525230291,88060.12525230291,0.16984783072030268,0.16871342773628337
88060.13025230292,88060.13025230292,0.1697815415439117,0.16853234208868192
88060.13525230292,88060.13525230292,0.16970310374747957,0.16833923452577537
88060.14025230292,88060.14025230292,0.4029822827282749,0.2806044335764918
88060.14525230293,88060.14525230293,0.16951061308960205,0.19282537619638518
88060.15025230293,88060.15025230293,0.16939625558598526,0.16768923855662402
88060.15525230294,88060.15525230294,0.16927000524425914,0.16744893289959356
88060.16025230294,88060.16025230294,0.16913202683518344,0.1671970782014399
88060.16525230295,88060.16525230295,0.16898194887268242,0.1669333204111869
88060.17025230295,88060.17025230295,0.1688201718954906,0.16665806496923696
88060.17525230296,88060.17525230296,0.1686462896254899,0.25739654800195755
88060.18025230296,88060.18025230296,0.16846064651188425,0.16607224870722898
88060.18525230297,88060.18525230297,0.16826311034841987,0.16576191969704063
88060.19025230297,88060.19025230297,0.168053782884683,0.16544004880434515
88060.19525230298,88060.19525230298,0.16783258967724674,0.16510657491066422
88060.20025230298,88060.20025230298,0.16759973044188156,0.2022759213880046
88060.20525230299,88060.20525230299,0.16735502289212822,0.164405272441793
88060.21025230299,88060.21025230299,0.16709871098141163,0.16403752723789547
88060.215252303,88060.215252303,0.16683051888011444,0.1636582123734734
88060.220252303,88060.220252303,0.16655050080570824,0.16326739293789058
88060.225252303,88060.225252303,0.16625930255824062,0.16286570816735577
88060.23025230301,88060.23025230301,0.1659560828628905,0.1624523527433262
88060.23525230301,88060.23525230301,0.16564142135025597,0.16202790132037678
88060.24025230302,88060.24025230302,0.16531527778357918,0.16159232650508337
88060.24525230302,88060.24525230302,0.16497745916772869,0.16114545349445347
88060.25025230303,88060.25025230303,0.16462819870160286,0.16068751999056582
88060.25525230303,88060.25525230303,0.164267407589012,0.16021845226823275
88060.26025230304,88060.26025230304,0.16389532165267628,0.15973848991285947
88060.26525230304,88060.26525230304,0.16351166114930385,0.15924737544803352
88060.27025230305,88060.27025230305,0.16311654497907044,0.15874523600085033
88060.27525230305,88060.27525230305,0.16271050113528865,0.15823259120287045
88060.28025230306,88060.28025230306,0.16229310557176282,0.15770904539089453
88060.28525230306,88060.28525230306,0.1618643158364718,0.15717457052312248
88060.29025230306,88060.29025230306,0.16142438403132695,0.15662942078497205
88060.29525230307,88060.29525230307,0.2487693817105493,0.15607366542133294
88060.30025230307,88060.30025230307,0.1605112702700719,0.5142705706835928
88060.30525230308,88060.30525230308,0.1600380590122662,0.15493035448629885
88060.31025230308,88060.31025230308,0.1595538260525517,0.15434288460498716
88060.31525230309,88060.31525230309,0.15905865385604248,0.15374499588446106
88060.32025230309,88060.32025230309,0.15855261350511005,0.153136768503152
88060.3252523031,88060.3252523031,0.15803568270275042,0.15251819401361136
88060.3302523031,88060.3302523031,0.1575080215255751,0.1518894371045762
88060.3352523031,88060.3352523031,0.15696949094521703,0.15125037884532627
88060.34025230311,88060.34025230311,0.1564202975331315,0.1506012279516423
88060.34525230312,88060.34525230312,0.1558606021007656,0.14994214915354284
88060.35025230312,88060.35025230312,0.1552901256528765,0.1492728920493192
88060.35525230312,88060.35525230312,0.1547092035680635,0.14859378638191412
88060.36025230313,88060.36025230313,0.38619543877012874,0.14790476084802529
88060.36525230313,88060.36525230313,0.15351602537590694,0.14720608415011222
88060.37025230314,88060.37025230314,0.152903793659554,0.1464975373175359
88060.37525230314,88060.37525230314,0.15228137442000714,0.14577943722445605
88060.38025230315,88060.38025230315,0.7459696717197262,0.14505181669215977
88060.38525230315,88060.38525230315,0.2734120712502539,0.4603792165941475
88060.39025230316,88060.39025230316,0.4043894159132076,0.1435678674392442
88060.39525230316,88060.39525230316,0.1496899649693886,0.14281190634951174
88060.40025230317,88060.40025230317,0.149016961088017,0.1420465727660594
88060.40525230317,88060.40525230317,0.14833411047295367,0.14127208571325686
88060.41025230318,88060.41025230318,0.14764142926901785,0.1404884740591031
88060.41525230318,88060.41525230318,0.14693900107667385,0.67885405442458
88060.42025230319,88060.42025230319,0.1462266071957448,0.13889396409338864
88060.42525230319,88060.42525230319,0.1455051126745374,0.13808369157780886
88060.4302523032,88060.4302523032,0.1447738615414632,0.4935906456521694
88060.4352523032,88060.4352523032,0.14403293968477934,0.13643624429727874
88060.4402523032,88060.4402523032,0.1432827597337721,0.13559955850627803
88060.44525230321,88060.44525230321,0.14252333609953471,0.1347543902093857
88060.45025230321,88060.45025230321,0.17063734137803838,0.13390066564217554
88060.45525230322,88060.45525230322,0.21032017864788383,0.13303851207121714
88060.46025230322,88060.46025230322,0.1401895137588905,0.13216805797439968
88060.46525230323,88060.46525230323,0.13939350029207917,0.13128946147568563
88060.47025230323,88060.47025230323,0.13858835754701124,0.1304025634815285
88060.47525230324,88060.47525230324,0.13777461071120023,0.12950785642701393
88060.48025230324,88060.48025230324,0.1369519763459995,0.12860509870342085
88060.48525230325,88060.48525230325,0.1361205679657214,0.12769440931841985
88060.49025230325,88060.49025230325,0.13528068454564188,0.1267760741227152
88060.49525230326,88060.49525230326,0.13443215501110062,0.12584995503569912
88060.50025230326,88060.50025230326,0.1335753221404034,0.12491637653750927
88060.50525230326,88060.50525230326,0.13270996441742228,0.12397515639963683
88060.51025230327,88060.51025230327,0.13183647407860427,0.12302666256880859
88060.51525230327,88060.51525230327,0.13095471102196557,0.12207078652063945
88060.52025230328,88060.52025230328,0.13006482517424103,0.12110767929413269
88060.52525230328,88060.52525230328,0.5281464308416213,0.12013752176619182
88060.53025230329,88060.53025230329,0.12826130075954825,0.11916038663634332
88060.53525230329,88060.53525230329,0.1273476785404415,0.11817625067216599
88060.5402523033,88060.5402523033,0.12642643351758456,0.11718539566120466
88060.5452523033,88060.5452523033,0.12549743481555423,0.11618772446037164
88060.5502523033,88060.5502523033,0.12456101340434644,0.11518354579271833
88060.55525230331,88060.55525230331,0.12361698887549569,0.11417272019859027
88060.56025230332,88060.56025230332,0.12266569817897384,0.1131555606778189
88060.56525230332,88060.56525230332,0.12170709779926371,0.11213204809829934
88060.57025230333,88060.57025230333,0.12074134791333925,0.11110234070814805
88060.57525230333,88060.57525230333,0.11976848014528146,0.11006648538278498
88060.58025230333,88060.58025230333,0.11878867210981771,0.1090246549773413
88060.58525230334,88060.58525230334,0.4883330294387266,0.1079769375557685
88060.59025230334,88060.59025230334,0.11680851032574507,0.10692338491354442
88060.59525230335,88060.59525230335,0.11580838769182528,0.10586418351803167
88060.60025230335,88060.60025230335,0.11480164388993519,0.10479936147522449
88060.60525230336,88060.60525230336,0.3847698571958198,0.10372905334900077
88060.61025230336,88060.61025230336,0.11276884945748344,0.10265341195476009
88060.61525230337,88060.61525230337,0.11174303391259438,0.10157252547701918
88060.62025230337,88060.62025230337,0.1107109798563109,0.10048642799475743
88060.62525230338,88060.62525230338,0.10967284888601647,0.09939527714879541
88060.63025230338,88060.63025230338,0.10862881050625336,0.0982992362564329
88060.63525230339,88060.63525230339,0.10757882572736219,0.0971982966780614
88060.64025230339,88060.64025230339,0.1065231351909363,0.09609268012667281
88060.6452523034,88060.6452523034,0.10546179114738236,0.09498245326756903
88060.6502523034,88060.6502523034,0.1586338470137819,0.09386771282283983
88060.6552523034,88060.6552523034,0.1033225654149366,0.6313999531453975
88060.66025230341,88060.66025230341,0.10224491827345521,0.09162523641079034
88060.66525230341,88060.66525230341,0.1011619611312681,0.42195800301523434
88060.67025230342,88060.67025230342,0.10007396885956253,0.08936604006216138
88060.67525230342,88060.67525230342,0.09898093602991803,0.08823048653316859
88060.68025230343,88060.68025230343,0.09788303216248982,0.4255301189479056
88060.68525230343,88060.68525230343,0.407978924215377,0.0859480604461432
88060.69025230344,88060.69025230344,0.09567299058495658,0.08480142272956724
88060.69525230344,88060.69525230344,0.09456098514542105,0.08365123142123056
88060.70025230345,88060.70025230345,0.09344455462810221,0.08249769902456891
88060.70525230345,88060.70525230345,0.0923238351262263,0.08134095825324533
88060.71025230346,88060.71025230346,0.09119889119314954,0.08018108887066903
88060.71525230346,88060.71525230346,0.09006975652576821,0.07901814947749934
88060.72025230346,88060.72025230346,0.08893667642751467,0.07785235285592539
88060.72525230347,88060.72525230347,0.08779968589205443,0.07668375865110173
88060.73025230347,88060.73025230347,0.0866589003846209,0.07551248545689254
88060.73525230348,88060.73525230348,0.08551442511943395,0.07433864472335303
88060.74025230348,88060.74025230348,0.08436643631580737,0.07316239627506164
88060.74525230349,88060.74525230349,0.08321501815935431,0.07198383621866218
88060.7502523035,88060.7502523035,0.08206027277708607,0.07080307365234433
88060.7552523035,88060.7552523035,0.08090228573829582,0.0696202078578802
88060.7602523035,88060.7602523035,0.07974126342449608,0.06843541479625503
88060.7652523035,88060.7652523035,0.07857720385232485,0.40079196254956223
88060.77025230351,88060.77025230351,0.07741027354821876,0.06606033204976447
88060.77525230352,88060.77525230352,0.07624067736393732,0.22000151994227501
88060.78025230352,88060.78025230352,0.0750684380558018,0.06367889606753366
88060.78525230353,88060.78525230353,0.07389368251914989,0.0624860555238498
88060.79025230353,88060.79025230353,0.07271655602787096,0.06129197567149641
88060.79525230353,88060.79525230353,0.07153712854376791,0.06009675173251455
88060.80025230354,88060.80025230354,0.07035553955444106,0.3035550914089809
88060.80525230354,88060.80525230354,0.0691719529881828,0.057703405478719
88060.81025230355,88060.81025230355,0.06798642957072798,0.05650551664839617
88060.81525230355,88060.81525230355,0.06679910418216124,0.05530697621325298
88060.82025230356,88060.82025230356,0.06561011551507152,0.05410790977560445
88060.82525230356,88060.82525230356,0.06441954961788815,0.05290842776923046
88060.83025230357,88060.83025230357,0.06322754047183471,0.051708654992139336
88060.83525230357,88060.83525230357,0.06203420590755694,0.050508711746840435
88060.84025230358,88060.84025230358,0.060839689538891205,0.05069128209572923
88060.84525230358,88060.84525230358,0.05964406834648225,0.2605135314977088
88060.85025230359,88060.85025230359,0.05844748494380941,0.05309094096357106
88060.85525230359,88060.85525230359,0.057250063459789065,0.05429036895821293
88060.8602523036,88060.8602523036,0.05605191148823157,0.05548936466933541
88060.8652523036,88060.8652523036,0.054853157456871915,0.05668781319380883
88060.8702523036,88060.8702523036,0.053653919476935784,0.05788559701651453
88060.87525230361,88060.87525230361,0.0524543134288852,0.059082587884549016
88060.88025230361,88060.88025230361,0.05125446255450022,0.060278674071646846
88060.88525230362,88060.88525230362,0.05017722532775144,0.06147371985489031
88060.89025230362,88060.89025230362,0.2628887312799726,0.06266762606242496
88060.89525230363,88060.89525230363,0.0523453649910857,0.06386028084140663
88060.90025230363,88060.90025230363,0.053544992005018034,0.06505150953610046
88060.90525230364,88060.90525230364,0.0547442706709135,0.066241264231341
88060.91025230364,88060.91025230364,0.05594307756570794,0.06742940064835344
88060.91525230365,88060.91525230365,0.057141288008692476,0.06861578637457866
88060.92025230365,88060.92025230365,0.058338784860763805,0.06980031096922674
88060.92525230366,88060.92525230366,0.05953544769633708,0.07098285489644954
88060.93025230366,88060.93025230366,0.060731150004381486,0.0721632857190312
88060.93525230367,88060.93525230367,0.06192578962680328,0.07334152201070315
88060.94025230367,88060.94025230367,0.47811625577166744,0.07451739173546973
88060.94525230367,88060.94525230367,0.06431135452316192,0.07569084093883319
88060.95025230368,88060.95025230368,0.0655020239214766,0.076861661220349
88060.95525230368,88060.95525230368,0.0666912111952738,0.0780299129395576
88060.96025230369,88060.96025230369,0.5371174469157763,0.07919529767268246
88060.9652523037,88060.9652523037,0.06906438338958157,0.08035775872561965
88060.9702523037,88060.9702523037,0.07024817533671246,0.08151719570612068
88060.9752523037,88060.9752523037,0.07142991939999258,0.08267344544893747
88060.9802523037,88060.9802523037,0.07260953366217439,0.08382644854351456
88060.98525230371,88060.98525230371,0.07378690271777716,0.08497609234964373
88060.99025230372,88060.99025230372,0.13581005451539008,0.0861222070472411
88060.99525230372,88060.99525230372,0.07613437221827767,0.08726474936218521
88061.00025230373,88061.00025230373,0.07730422050517899,0.08840350996090604
88061.00525230373,88061.00525230373,0.0784713576184801,0.08953845763757806
88061.01025230373,88061.01025230373,0.25252587478483296,0.09066946883804584
88061.01525230374,88061.01525230374,0.08079698199157413,0.09179638938525383
88061.02025230374,88061.02025230374,0.08195522337849677,0.09291912944851616
88061.02525230375,88061.02525230375,0.08311028691838168,0.0940376012730602
88061.03025230375,88061.03025230375,0.08426205088046847,0.0951516841783193
88061.03525230376,88061.03525230376,0.3001960314755965,0.09626116189691919
88061.04025230376,88061.04025230376,0.08655510230955854,0.09736608437092499
88061.04525230377,88061.04525230377,0.08769626176381087,0.10747784750122878
88061.05025230377,88061.05025230377,0.08883352129131972,0.09956152645014096
88061.05525230378,88061.05525230378,0.0899670599077028,0.10065199197436207
88061.06025230378,88061.06025230378,0.09109653341285447,0.10173730492974478
88061.06525230379,88061.06525230379,0.09222190487202989,0.10281745358738988
88061.07025230379,88061.07025230379,0.09334300780355825,0.10389226271692675
88061.0752523038,88061.0752523038,0.09445983552430946,0.10496175614706157
88061.0802523038,88061.0802523038,0.09557220322667961,0.10602573582697011
88061.0852523038,88061.0852523038,0.09667996605730511,0.10708405453198781
88061.09025230381,88061.09025230381,0.09778314462949671,0.10813676718198424
88061.09525230381,88061.09525230381,0.09888149617909556,0.10918360662757319
88061.10025230382,88061.10025230382,0.09997495189401298,0.11022451847449531
88061.10525230382,88061.10525230382,0.10106336858179396,0.11125935818653135
88061.11025230383,88061.11025230383,0.10214673832374593,0.11228814342348044
88061.11525230383,88061.11525230383,0.10322484390211666,0.11331064088724035
88061.12025230384,88061.12025230384,0.10429776448303837,0.11432697058824658
88061.12525230384,88061.12525230384,0.10536511084677073,0.34384888104121414
88061.13025230385,88061.13025230385,0.1064269795164861,0.11633995779652902
88061.13525230385,88061.13525230385,0.10748317791789022,0.11733655297959722
88061.14025230386,88061.14025230386,0.10853367016990902,0.11832646385644768
88061.14525230386,88061.14525230386,0.10957825689303054,0.11930948123901358
88061.15025230387,88061.15025230387,0.1106169336525149,0.12028562336071562
88061.15525230387,88061.15525230387,0.1116495638298049,0.12125475423948294
88061.16025230387,88061.16025230387,0.1126759650084547,0.12221668561678962
88061.16525230388,88061.16525230388,0.1136960464685384,0.12317133565468277
88061.17025230388,88061.17025230388,0.23824487434263858,0.12411886131422957
88061.17525230389,88061.17525230389,0.11571725260127304,0.12505888056434755
88061.1802523039,88061.1802523039,0.4899535332464725,0.12599107123742764
88061.1852523039,88061.1852523039,0.11771204805487775,0.12691626017095836
88061.1902523039,88061.1902523039,0.11869940378271222,0.7639791333373691
88061.1952523039,88061.1952523039,0.11967978980769886,0.1287429088645041
88061.20025230391,88061.20025230391,0.120653299466354,0.12964451428095483
88061.20525230392,88061.20525230392,0.1216196812114994,0.13053808466648992
88061.21025230392,88061.21025230392,0.12257893198863563,0.13142363612854405
88061.21525230393,88061.21525230393,0.5159549861859475,0.7174010457958815
88061.22025230393,88061.22025230393,0.12447557188406491,0.13317023217859267
88061.22525230394,88061.22525230394,0.12541270809919552,0.13403103158367782
88061.23025230394,88061.23025230394,0.12634234387253437,0.13488347355096453
88061.23525230394,88061.23525230394,0.1272641900854524,0.13572725480534997
88061.24025230395,88061.24025230395,0.5769420259359128,0.1365627895667063
88061.24525230395,88061.24525230395,0.12908508972414912,0.13738954594332126
88061.25025230396,88061.25025230396,0.129983671579198,0.13820756818572147
88061.25525230396,88061.25525230396,0.13087430263510574,0.139016821921469
88061.26025230397,88061.26025230397,0.1317566862570953,0.1398169978774794
88061.26525230397,88061.26525230397,0.13263098622284486,0.1406082933913388
88061.27025230398,88061.27025230398,0.13349706085835011,0.14139056939185263
88061.27525230398,88061.27525230398,0.23124768348570107,0.14216366096204708
88061.28025230399,88061.28025230399,0.1352040340369025,0.1429275814804668
88061.28525230399,88061.28525230399,0.13604471510876964,0.14368211310422263
88061.290252304,88061.290252304,0.13687675446367875,0.14442723619516729
88061.295252304,88061.295252304,0.1377001063979279,0.14516291713843657
88061.300252304,88061.300252304,0.13851475560430263,0.1458891549795814
88061.30525230401,88061.30525230401,0.13932072215291907,0.1466059865375894
88061.31025230401,88061.31025230401,0.14011754747843722,0.14731293110562904
88061.31525230402,88061.31525230402,0.14090550444127362,0.1480102991933709
88061.32025230402,88061.32025230402,0.14168422748655374,0.14869771160451048
88061.32525230403,88061.32525230403,0.1424538393420175,0.1493753159407883
88061.33025230403,88061.33025230403,0.1432142396920005,0.1500430191047139
88061.33525230404,88061.33525230404,0.14396528190253896,0.1507006785274846
88061.34025230404,88061.34025230404,0.1447068631028331,0.15134819885894069
88061.34525230405,88061.34525230405,0.4522228564877331,0.15198575804810113
88061.35025230405,88061.35025230405,0.14616174668053858,0.15261299223592736
88061.35525230406,88061.35525230406,0.1468747699292822,0.1532299957839814
88061.36025230406,88061.36025230406,0.1475780846193251,0.1538366538597494
88061.36525230407,88061.36525230407,0.14827170426848868,0.15443299503445507
88061.37025230407,88061.37025230407,0.14895541329397421,0.1550188041937099
88061.37525230407,88061.37525230407,0.1496293125381363,0.15559420247005443
88061.38025230408,88061.38025230408,0.15029304182667957,0.15615882202759332
88061.38525230408,88061.38525230408,0.15094700262579305,0.15671310191308943
88061.39025230409,88061.39025230409,0.1515907177479103,0.15725655076037787
88061.3952523041,88061.3952523041,0.393716475243368,0.15778941457113005
88061.4002523041,88061.4002523041,0.15284766284891713,0.15831127699630865
88061.4052523041,88061.4052523041,0.15346076534869385,0.1588224468676736
88061.41025230411,88061.41025230411,0.15406364552467822,0.15932286449643399
88061.41525230411,88061.41525230411,0.15465588620632797,0.22885398767323578
88061.42025230412,88061.42025230412,0.15523783917811326,0.1602905507349333
88061.42525230412,88061.42525230412,0.1558091738171561,0.16075786839269104
88061.43025230413,88061.43025230413,0.15637001959092323,0.16121420654190471
88061.43525230413,88061.43525230413,0.1569201190104926,0.16165930890633884
88061.44025230414,88061.44025230414,0.1574595090648487,0.1620932273180825
88061.44525230414,88061.44525230414,0.1579882531316331,0.16251604071553016
88061.45025230414,88061.45025230414,0.15850608310267164,0.16292748242290309
88061.45525230415,88061.45525230415,0.1590131402842764,0.16332771244135458
88061.46025230415,88061.46025230415,0.15950913117311155,0.16371643835442645
88061.46525230416,88061.46525230416,0.15999450945443336,0.2663483890254525
88061.47025230416,88061.47025230416,0.16046873004206147,0.16446027569605484
88061.47525230417,88061.47525230417,0.16093190217687306,0.16481495974589083
88061.48025230417,88061.48025230417,0.16138400692759416,0.16515818894311599
88061.48525230418,88061.48525230418,0.16182483335434905,0.16548975771665395
88061.49025230418,88061.49025230418,0.1622545720226353,0.16580987542979492
88061.49525230419,88061.49525230419,0.16267305014262612,0.49576642981978014
88061.50025230419,88061.50025230419,0.20788442844633748,0.16641541103223845
88061.5052523042,88061.5052523042,0.1634762089766406,0.16670055869496592
88061.5102523042,88061.5102523042,0.1638608915169474,0.16697426688344844
88061.5152523042,88061.5152523042,0.16423403050362254,0.1672361158371309
88061.52025230421,88061.52025230421,0.16459579668513646,0.1674862931894966
88061.52525230421,88061.52525230421,0.1649462386786699,0.167724860624153
88061.53025230422,88061.53025230422,0.16528503925011306,0.1679515051196254
88061.53525230422,88061.53525230422,0.16561227501803935,0.1681663174145991
88061.54025230423,88061.54025230423,0.1659280038547414,0.16836936864226723
88061.54525230423,88061.54525230423,0.16623221282028794,0.1685606573451304
88061.55025230424,88061.55025230424,0.16652469786466892,0.16873998724986186
88061.55525230424,88061.55525230424,0.16680555940698408,0.1689074726975835
88061.56025230425,88061.56025230425,0.1670747141349856,0.1690630407268396
88061.56525230425,88061.56525230425,0.16733219738673905,0.16920673907553158
88061.57025230426,88061.57025230426,0.16757804506083684,0.16933861586121016
88061.57525230426,88061.57525230426,0.2361957292822366,0.16945840153449757
88061.58025230427,88061.58025230427,0.16803418423816205,0.1695662925483513
88061.58525230427,88061.58525230427,0.16824460049727064,0.16966224259905038
88061.59025230428,88061.59025230428,0.16844309689416073,0.16974612995539468
88061.59525230428,88061.59525230428,0.3555575202497579,0.16981820615082285
88061.60025230428,88061.60025230428,0.16880475686162608,0.16987819488649628
88061.60525230429,88061.60525230429,0.16896768548879196,0.16992615844900077
88061.6102523043,88061.6102523043,0.5377881706808739,0.1699621586768759
88061.6152523043,88061.6152523043,0.16925802707442242,0.16998629542686955
88061.6202523043,88061.6202523043,0.16938533521079846,0.16999838626123495
88061.62525230431,88061.62525230431,0.16950059070551543,0.16999836259860673
88061.63025230431,88061.63025230431,0.16960403936295268,0.16998648289039367
88061.63525230432,88061.63525230432,0.1696954266289996,0.16996250317161746
88061.64025230432,88061.64025230432,0.16977489936190102,0.1699265823386892
88061.64525230433,88061.64525230433,0.1698424218513439,0.16987869603835182
88061.65025230433,88061.65025230433,0.16989780757776413,0.5141014267022674
88061.65525230434,88061.65525230434,0.16994135518787915,0.1697468123759204
88061.66025230434,88061.66025230434,0.1699727329240197,0.1696628053303403
88061.66525230434,88061.66525230434,0.16999229420228204,0.1695670124054244
88061.67025230435,88061.67025230435,0.16999990519331887,0.1694593113922972
88061.67525230435,88061.67525230435,0.5445200049619894,0.16933933251487482
88061.68025230436,88061.68025230436,0.16997876611219478,0.16920772368352643
88061.68525230436,88061.68525230436,0.16995037078913622,0.16906421287426548
88061.69025230437,88061.69025230437,0.1853117481909622,0.16890871518101147
88061.69525230437,88061.69525230437,0.1698573789963754,0.67214038488576
88061.70025230438,88061.70025230438,0.7883575788037296,0.16856196062663759
88061.70525230438,88061.70525230438,0.16971651296069504,0.16837089648492118
88061.71025230439,88061.71025230439,0.16962800064195804,0.16816782844556977
88061.71525230439,88061.71525230439,0.16952758339592985,0.16795300089852055
88061.7202523044,88061.7202523044,0.16941530148581593,0.16772646497264218
88061.7252523044,88061.7252523044,0.5081446477405935,0.16748799215348642
88061.7302523044,88061.7302523044,0.16915487714989752,0.16723805115422
88061.73525230441,88061.73525230441,0.1690066651364518,0.16697612818829458
88061.74025230441,88061.74025230441,0.16884647324845595,0.3567843501240221
88061.74525230442,88061.74525230442,0.16867475278781235,0.16641741122350237
88061.75025230442,88061.75025230442,0.40700785535698847,0.16612057027769728
88061.75525230443,88061.75525230443,0.16829539382907338,0.1658121500372898
88061.76025230443,88061.76025230443,0.16808790780909105,0.16549208084991684
88061.76525230444,88061.76525230444,0.1678687045931866,0.1651605520222431
88061.77025230444,88061.77025230444,0.16763761934966642,0.16481741415282575
88061.77525230445,88061.77525230445,0.16739476725895122,0.1644627915978806
88061.78025230445,88061.78025230445,0.1671402436294518,0.16409678903993605
88061.78525230446,88061.78525230446,0.16687399146479592,0.163719362612226
88061.79025230446,88061.79025230446,0.1665960895096625,0.16333060078853956
88061.79525230447,88061.79525230447,0.16630648138726678,0.16293046059787247
88061.80025230447,88061.80025230447,0.1660052059445832,0.162518991794308
88061.80525230448,88061.80525230448,0.16569227186257512,0.16209621484243036
88061.81025230448,88061.81025230448,0.16536787975240444,0.16166233608357722
88061.81525230448,88061.81525230448,0.5115358485155788,0.16121735519874902
88061.82025230449,88061.82025230449,0.16468452134736594,0.16076112677844656
88061.8252523045,88061.8252523045,0.164325698907627,0.16029395917794015
88061.8302523045,88061.8302523045,0.16395530098428335,0.15981562427039817
88061.8352523045,88061.8352523045,0.16357351631680708,0.1593263163527208
88061.84025230451,88061.84025230451,0.16318039507455795,0.1588260958640692
88061.84525230451,88061.84525230451,0.1627760285414584,0.1583150626663828
88061.85025230452,88061.85025230452,0.16236026153630523,0.15779307996952552
88061.85525230452,88061.85525230452,0.16193334898364112,0.15726040481405817
88061.86025230453,88061.86025230453,0.1614951789199621,0.1567169421469708
88061.86525230453,88061.86525230453,0.1610460367624566,0.15616297750820415
88061.87025230454,88061.87025230454,0.16058554613422182,0.15559816339325838
88061.87525230454,88061.87525230454,0.16011413108113676,0.15502291763254628
88061.88025230455,88061.88025230455,0.1596317107483952,0.15443717536066262
88061.88525230455,88061.88525230455,0.15913832136528216,0.1538409837111499
88061.89025230455,88061.89025230455,0.515464522170018,0.15323416041135304
88061.89525230456,88061.89525230456,0.15811870801542144,0.15261737237938278
88061.90025230456,88061.90025230456,0.15759281489716753,0.15199029236410047
88061.90525230457,88061.90525230457,0.15705595665212238,0.1513528181786962
88061.91025230457,88061.91025230457,0.15650856927998255,0.7623253802040455
88061.91525230458,88061.91525230458,0.1559502894924143,0.1500476345715323
88061.92025230458,88061.92025230458,0.15538163365111707,0.14938009547111802
88061.92525230459,88061.92525230459,0.15480230870353298,0.14870249489963616
88061.93025230459,88061.93025230459,0.15421269393333967,0.14801520335741794
88061.9352523046,88061.9352523046,0.15361259880642647,0.14731805450314858
88061.9402523046,88061.9402523046,0.1530019735125322,0.14661101526481984
88061.9452523046,88061.9452523046,0.1523812005931602,0.14589445810146195
88061.95025230461,88061.95025230461,0.15175022119353043,0.14516834097837822
88061.95525230461,88061.95525230461,0.1511088982548709,0.1444325494446918
88061.96025230462,88061.96025230462,0.15045766261168592,0.1436874997321842
88061.96525230462,88061.96525230462,0.14979623502886924,0.22011316133249925
88061.97025230463,88061.97025230463,0.14912482517014994,0.1421690943694119
88061.97525230463,88061.97525230463,0.14844358077097744,0.14139609943760426
88061.98025230464,88061.98025230464,0.14775244089691897,0.1406139174315217
88061.98525230464,88061.98525230464,0.14705161380169957,0.13982275555504223
88061.99025230465,88061.99025230465,0.53084344375093,0.2746654753124304
88061.99525230465,88061.99525230465,0.1456207063976871,0.1382133717544824
88062.00025230466,88062.00025230466,0.144890978795773,0.13739550447397972
88062.00525230466,88062.00525230466,0.14415159963533017,0.1365687480472526
88062.01025230467,88062.01025230467,0.1434029837881886,0.1357334988486031
88062.01525230467,88062.01525230467,0.14264488479423326,0.13488954514407658
88062.02025230468,88062.02025230468,0.14187754856815393,0.13403712759131373
88062.02525230468,88062.02525230468,0.14110099169828397,0.1331762764101024
88062.03025230468,88062.03025230468,0.14031541052747373,0.35487743651423836
88062.03525230469,88062.03525230469,0.13952085635564535,0.1314299180463075
88062.0402523047,88062.0402523047,0.1387172361034202,0.1305444033419857
88062.0452523047,88062.0452523047,0.1379047899318422,0.33540203194740803
88062.0502523047,88062.0502523047,0.13708348095743444,0.12874931772982448
88062.05525230471,88062.05525230471,0.13625360734609557,0.12784001464606
88062.06025230471,88062.06025230471,0.13541504802869056,0.12692287291625787
88062.06525230472,88062.06525230472,0.13456784401694422,0.1259979460686319
88062.07025230472,88062.07025230472,0.1337122706470048,0.2570960149077627
88062.07525230473,88062.07525230473,0.13284830530193148,0.12412552503695774
88062.08025230473,88062.08025230473,0.13197610130999726,0.12317818068351948
88062.08525230474,88062.08525230474,0.13109566757136695,0.12222348978241722
88062.09025230474,88062.09025230474,0.13020704328546207,0.12126150457085869
88062.09525230475,88062.09525230475,0.12931060307182213,0.12029257502950302
88062.10025230475,88062.10025230475,0.1284060947160692,0.11931649450232518
88062.10525230475,88062.10525230475,0.4192339871701291,0.11833347382228404
88062.11025230476,88062.11025230476,0.12657359307664245,0.11734358920556853
88062.11525230476,88062.11525230476,0.12564594130362974,0.11634710081298427
88062.12025230477,88062.12025230477,0.12471061614646226,0.11534388210045513
88062.12525230477,88062.12525230477,0.12376780690242688,0.1143341176957072
88062.13025230478,88062.13025230478,0.12281766088310285,0.11331795489805727
88062.13525230478,88062.13525230478,0.12186024695274277,0.5445108971169063
88062.14025230479,88062.14025230479,0.12089564330320882,0.11126675670942202
88062.14525230479,88062.14525230479,0.11992387870114049,0.11023185291046493
88062.1502523048,88062.1502523048,0.11894524674642618,0.10919103356552884
88062.1552523048,88062.1552523048,0.11795959544263641,0.10814418791857712
88062.1602523048,88062.1602523048,0.11696718064557726,0.1070915558517428
88062.16525230481,88062.16525230481,0.1159681601718806,0.10603329205060334
88062.17025230482,88062.17025230482,0.11496241765402403,0.10496931852738173
88062.17525230482,88062.17525230482,0.11395024340044772,0.10389990277754546
88062.18025230482,88062.18025230482,0.11293166141565897,0.10282508634622066
88062.18525230483,88062.18525230483,0.11190676848185975,0.4259631715472244
88062.19025230483,88062.19025230483,0.11087576470736946,0.10065975082070334
88062.19525230484,88062.19525230484,0.10983856831707067,0.09956937567728913
88062.20025230484,88062.20025230484,0.10879543047356491,0.09847407889696964
88062.20525230485,88062.20525230485,0.10774643354794282,0.09737395155877115
88062.21025230485,88062.21025230485,0.10669165485972022,0.096269080857781
88062.21525230486,88062.21525230486,0.10563117117606828,0.09515955407066921
88062.22025230486,88062.22025230486,0.6640110273660923,0.09404556478123291
88062.22525230487,88062.22525230487,0.10349367383929614,0.09292710713390816
88062.23025230487,88062.23025230487,0.10241686998933176,0.0918044065696784
88062.23525230488,88062.23525230488,0.10133481321402009,0.0906775164673378
88062.24025230488,88062.24025230488,0.10024757885672322,0.0895465237527669
88062.24525230489,88062.24525230489,0.09915537003745752,0.08841161605125385
88062.25025230489,88062.25025230489,0.09805825358381516,0.0872728731524539
88062.2552523049,88062.2552523049,0.09695626888678749,0.08613035461399401
88062.2602523049,88062.2602523049,0.3256496577166913,0.08498426393767936
88062.2652523049,88062.2652523049,0.09473838559971172,0.08383464159101814
88062.27025230491,88062.27025230491,0.09362274194011866,0.08268170075722486
88062.27525230491,88062.27525230491,0.09250262556711142,0.0815254089892953
88062.28025230492,88062.28025230492,0.1460750829516132,0.08036601048362485
88062.28525230492,88062.28525230492,0.09024987807416335,0.3746887800465122
88062.29025230493,88062.29025230493,0.2582118411520603,0.2761124595432729
88062.29525230493,88062.29525230493,0.08798100763214467,0.076870044459225
88062.30025230494,88062.30025230494,0.08684081617052374,0.07569918830434573
88062.30525230494,88062.30525230494,0.3771945031280872,0.0745257793648272
88062.31025230495,88062.31025230495,0.08454947762593425,0.0733498718947737
88062.31525230495,88062.31525230495,0.08339862055793079,0.0721716875024086
88062.32025230495,88062.32025230495,0.09631941739301153,0.07099127063558426
88062.32525230496,88062.32525230496,0.0810869158827976,0.0698087272278085
88062.33025230496,88062.33025230496,0.0799263650091877,0.06862423074285473
88062.33525230497,88062.33525230497,0.07876278662734655,0.06743785020066412
88062.34025230497,88062.34025230497,0.7798358879240719,0.06624975478691528
88062.34525230498,88062.34525230498,0.07642716662773283,0.06506000633366543
88062.35025230498,88062.35025230498,0.07525531876769909,0.06386875706867824
88062.35525230499,88062.35525230499,0.16495778732718794,0.062676123809599
88062.36025230499,88062.36025230499,0.07290420022478392,0.06148223661250285
88062.365252305,88062.365252305,0.29526096713664757,0.06028717885340591
88062.370252305,88062.370252305,0.0705438941001004,0.05909110955976846
88062.375252305,88062.375252305,0.06936059165589428,0.057894119363906614
88062.38025230501,88062.38025230501,0.0681753680875231,0.056696346054133984
88062.38525230502,88062.38525230502,0.3342758434192234,0.055497899858552316
88062.39025230502,88062.39025230502,0.06579958009461534,0.054298907834837526
88062.39525230502,88062.39525230502,0.06460924445850792,0.053099481466136966
88062.40025230503,88062.40025230503,0.06341747856787591,0.05189975145522264
88062.40525230503,88062.40525230503,0.06222435121567335,0.05069982765579185
88062.41025230504,88062.41025230504,0.06102998927417521,0.05050016518253349
88062.41525230504,88062.41525230504,0.059834553648944404,0.05170010963971647
88062.42025230505,88062.42025230505,0.058638112300729316,0.05289988093265099
88062.42525230505,88062.42525230505,0.05744081735067017,0.05409936473346218
88062.43025230506,88062.43025230506,0.05624277621618997,0.055298438033793904
88062.43525230506,88062.43525230506,0.055044116128770644,0.056496988312815175
88062.44025230507,88062.44025230507,0.05384494131316523,0.057694876405228704
88062.44525230507,88062.44525230507,0.052645386663729865,0.058892001178062314
88062.45025230508,88062.45025230508,0.051445567518464054,0.06008823875437261
88062.45525230508,88062.45525230508,0.05024560318043412,0.061283463736778995
88062.46025230509,88062.46025230509,0.05095438353254422,0.062477536056082944
88062.46525230509,88062.46525230509,0.05215427821660199,0.06367040960423799
88062.4702523051,88062.4702523051,0.053353957385793065,0.06486189986091087
88062.4752523051,88062.4752523051,0.05455330055809764,0.06605189931893746
88062.4802523051,88062.4802523051,0.055752190991038696,0.0672403003435106
88062.48525230511,88062.48525230511,0.05695049784156958,0.06842695341566786
88062.49025230511,88062.49025230511,0.05814811351916903,0.06961177596017312
88062.49525230512,88062.49525230512,0.05934491151655307,0.07079463136763597
88062.50025230512,88062.50025230512,0.06054077701817363,0.0719754125535745
88062.50525230513,88062.50525230513,0.06173559906941667,0.07315401749587028
88062.51025230513,88062.51025230513,0.06292924028212513,0.07433029166853479
88062.51525230514,88062.51525230514,0.06412159668569108,0.07550414732710393
88062.52025230514,88062.52025230514,0.06531252314912413,0.07667542041039281
88062.52525230515,88062.52525230515,0.0665019191779239,0.07784402827847406
88062.53025230515,88062.53025230515,0.08304942496143392,0.07900989157942713
88062.53525230516,88062.53525230516,0.06887566519520005,0.16336889643961133
88062.54025230516,88062.54025230516,0.07005974524736758,0.08133270552879861
88062.54525230516,88062.54525230516,0.07124184399624531,0.08248950285291351
88062.55025230517,88062.55025230517,0.12810304900145802,0.08364304090247143
88062.55525230517,88062.55525230517,0.3409698973351145,0.08479324383206659
88062.56025230518,88062.56025230518,0.07477490069836376,0.08593990461891196
88062.56525230518,88062.56525230518,0.07594780634972147,0.3021399161190299
88062.57025230519,88062.57025230519,0.07711808101233333,0.08822239462568367
88062.57525230519,88062.57525230519,0.07828568662605613,0.08935799750159636
88062.5802523052,88062.5802523052,0.07945041785569447,0.183156713760947
88062.5852523052,88062.5852523052,0.08061223722470405,0.405920975697212
88062.5902523052,88062.5902523052,0.0817708513543275,0.09274044514016448
88062.59525230521,88062.59525230521,0.08292656204819848,0.09385978335193162
88062.60025230522,88062.60025230522,0.08407881513109446,0.09497451431935162
88062.60525230522,88062.60525230522,0.08522769205140394,0.09608478984496924
88062.61025230523,88062.61025230523,0.08637305220339891,0.0971904645546662
88062.61525230523,88062.61525230523,0.08751474662293664,0.09829138329861377
88062.62025230523,88062.62025230523,0.0886527085480883,0.09938749742612725
88062.62525230524,88062.62525230524,0.08978679429653579,0.10047865893298409
88062.63025230524,88062.63025230524,0.09091689363773961,0.10156476290021807
88062.63525230525,88062.63525230525,0.09204290977259778,0.10264572122748515
88062.64025230525,88062.64025230525,0.6675767173121467,0.10372147987229619
88062.64525230526,88062.64525230526,0.09428221291566322,0.10479173183612707
88062.65025230526,88062.65025230526,0.09539532480266119,0.10585662958102936
88062.65525230527,88062.65525230527,0.0965037693374594,0.10691578467485717
88062.66025230527,88062.66025230527,0.0976077147093972,0.10796943348544467
88062.66525230528,88062.66525230528,0.09870682462681793,0.10901719406289936
88062.67025230528,88062.67025230528,0.09980113973495404,0.11005914457856478
88062.67525230529,88062.67525230529,0.10089036183428321,0.262542746802475
88062.68025230529,88062.68025230529,0.101974542935155,0.11212470972575703
88062.6852523053,88062.6852523053,0.1030535149964731,0.11314824025365317
88062.6902523053,88062.6902523053,0.10412724935602988,0.11416553629183152
88062.6952523053,88062.6952523053,0.10519545412489917,0.11517627727433954
88062.70025230531,88062.70025230531,0.10625820340330805,0.11618057651214257
88062.70525230531,88062.70525230531,0.10731536777048968,0.11717830564238246
88062.71025230532,88062.71025230532,0.10836678529463752,0.11816929871194054
88062.71525230532,88062.71525230532,0.10941228063349215,0.11915337509240327
88062.72025230533,88062.72025230533,0.11045195610241695,0.12013067738571637
88062.72525230533,88062.72525230533,0.11148552331377443,0.12110089320473166
88062.73025230534,88062.73025230534,0.11251295000331997,0.12206400820551995
88062.73525230534,88062.73525230534,0.11353398820746141,0.12301975910472522
88062.74025230535,88062.74025230535,0.11454876546583759,0.12396831474483004
88062.74525230535,88062.74525230535,0.11555723176755045,0.12490963836133502
88062.75025230536,88062.75025230536,0.11655906175686755,0.12584337847255367
88062.75525230536,88062.75525230536,0.11755412208688013,0.12676940480525306
88062.76025230536,88062.76025230536,0.11854256876146803,0.12768791536016189
88062.76525230537,88062.76525230537,0.11952410555209728,0.1285985939201536
88062.77025230537,88062.77025230537,0.12049867726121309,0.1295013983557827
88062.77525230538,88062.77525230538,0.12146623577457479,0.13039629396668867
88062.78025230538,88062.78025230538,0.12242668037301678,0.20045263337448466
88062.78525230539,88062.78525230539,0.12337976349945912,0.1321618174971361
88062.79025230539,88062.79025230539,0.1243255706568409,0.13303230184732365
88062.7952523054,88062.7952523054,0.12526399758343673,0.1338945413433555
88062.8002523054,88062.8002523054,0.12619479852641352,0.13474828034939432
88062.8052523054,88062.8052523054,0.1271180340292679,0.13559360474680315
88062.81025230541,88062.81025230541,0.18209936668954366,0.13643039529890977
88062.81525230542,88062.81525230542,0.1289412381301914,0.4359839222216958
88062.82025230542,88062.82025230542,0.12984112224854283,0.13807790758074862
88062.82525230543,88062.82525230543,0.1307329609198459,0.1388884920282131
88062.83025230543,88062.83025230543,0.13161668891076797,0.13969014655835604
88062.83525230543,88062.83525230543,0.13249229205451651,0.14048287258748737
88062.84025230544,88062.84025230544,0.13335963578891294,0.14126653917732518
88062.84525230544,88062.84525230544,0.1342186678878205,0.14204110576367895
88062.85025230545,88062.85025230545,0.13506932353135,0.14280651773016964
88062.85525230545,88062.85525230545,0.13591138606983277,0.14356255495477868
88062.86025230546,88062.86025230546,0.13674483174818558,0.1443092080528656
88062.86525230546,88062.86525230546,0.1375696721084999,0.1450465055002707
88062.87025230547,88062.87025230547,0.138385793795513,0.14577433972907802
88062.87525230547,88062.87525230547,0.13919296621107305,0.14649247657732478
88062.88025230548,88062.88025230548,0.13999135363194104,0.14720110944695664
88062.88525230548,88062.88525230548,0.14078057282700246,0.1478998395816229
88062.89025230549,88062.89025230549,0.14156077981802767,0.1485888509363722
88062.89525230549,88062.89525230549,0.14233188722586665,0.14926806422304487
88062.9002523055,88062.9002523055,0.14309377758942277,0.14993736793840048
88062.9052523055,88062.9052523055,0.14384635657645078,0.15059667563012138
88062.9102523055,88062.9102523055,0.14458938916039152,0.15124575035179194
88062.91525230551,88062.91525230551,0.14532314247994185,0.15188489291310886
88062.92025230551,88062.92025230551,0.1460472487635662,0.1525137243245195
88062.92525230552,88062.92525230552,0.14676190630981883,0.15313247079405698
88062.93025230552,88062.93025230552,0.2662926899506285,0.15374070557493713
88062.93525230553,88062.93525230553,0.148161801186805,0.15433862087049663
88062.94025230553,88062.94025230553,0.14884717275515583,0.15492619588889683
88062.94525230554,88062.94525230554,0.1495226141430582,0.15550322992485174
88062.95025230554,88062.95025230554,0.3403150065870659,0.6127084433415755
88062.95525230555,88062.95525230555,0.2299557993887696,0.15662551484479373
88062.96025230555,88062.96025230555,0.15148888700711985,0.4243486015202871
88062.96525230556,88062.96525230556,0.15212413991519522,0.15770524159914426
88062.97025230556,88062.97025230556,0.15274909680847557,0.15822889673410492
88062.97525230556,88062.97525230556,0.3237195464999826,0.15874182496264658
88062.98025230557,88062.98025230557,0.3202227404895028,0.15924382496510417
88062.98525230557,88062.98525230557,0.15456228896941016,0.15973494808635136
88062.99025230558,88062.99025230558,0.15514585470318365,0.1602150853019428
88062.99525230558,88062.99525230558,0.15571891014844172,0.16068420547521967
88063.00025230559,88063.00025230559,0.15628131331357153,0.1611421731039424
88063.0052523056,88063.0052523056,0.15683318274092264,0.161589125250762
88063.0102523056,88063.0102523056,0.1573743877453552,0.1620249381262285
88063.0152523056,88063.0152523056,0.15790480366978815,0.16244949456223698
88063.0202523056,88063.0202523056,0.158424390938081,0.1628627662986252
88063.02525230561,88063.02525230561,0.1589331063947172,0.32086334027775554
88063.03025230562,88063.03025230562,0.1594310693555412,0.16365549626127843
88063.03525230562,88063.03525230562,0.1599179856428051,0.16403479805313012
88063.04025230563,88063.04025230563,0.16039392563246752,0.16440271248463867
88063.04525230563,88063.04525230563,0.1608587806614362,0.16475913949747759
88063.05025230563,88063.05025230563,0.1613127129638183,0.1651042594468286
88063.05525230564,88063.05525230564,0.16175536528472206,0.16543771512661487
88063.06025230564,88063.06025230564,0.1621869229308689,0.16575971058709266
88063.06525230565,88063.06525230565,0.1626071883100851,0.16607005414308026
88063.07025230565,88063.07025230565,0.1630161923885846,0.16636879018746825
88063.07525230566,88063.07525230566,0.16341404866258194,0.16665604764618774
88063.08025230566,88063.08025230566,0.16380038180709355,0.16693145251962152
88063.08525230567,88063.08525230567,0.16417539634328204,0.16719522745072582
88063.09025230567,88063.09025230567,0.16453900775896405,0.16744729767734565
88063.09525230568,88063.09525230568,0.16489111906778775,0.1676875758041967
88063.10025230568,88063.10025230568,0.1652317798335625,0.1679161247167957
88063.10525230569,88063.10525230569,0.1655609234508933,0.16813288818535677
88063.11025230569,88063.11025230569,0.16587860473635857,0.1683379341042716
88063.1152523057,88063.1152523057,0.16618448917893985,0.16853093281210318
88063.1202523057,88063.1202523057,0.16647887653272533,0.16871220235374876
88063.1252523057,88063.1252523057,0.16676156967869984,0.16888155346812955
88063.13025230571,88063.13025230571,0.690025605415969,0.618231510313667
88063.13525230571,88063.13525230571,0.16729189212658313,0.16918456731694775
88063.14025230572,88063.14025230572,0.16753960304848997,0.1693183364234127
88063.14525230572,88063.14525230572,0.1677754120861535,0.16944002349694684
88063.15025230573,88063.15025230573,0.16799954387285235,0.16954986828611443
88063.15525230573,88063.15525230573,0.16821186819634654,0.16964775040781158
88063.16025230574,88063.16025230574,0.7561158130129307,0.16973359029701643
88063.16525230574,88063.16525230574,0.1686009612995851,0.233609137352733
88063.17025230575,88063.17025230575,0.16877776077074347,0.1698694995868634
88063.17525230575,88063.17525230575,0.16894261964901927,0.16991940995765173
88063.18025230576,88063.18025230576,0.16909569671221072,0.16995744170729654
88063.18525230576,88063.18525230576,0.1692366919736807,0.16998330424723226
88063.19025230577,88063.19025230577,0.1693658183103609,0.16999722365156059
88063.19525230577,88063.19525230577,0.16948304330950265,0.16999917879488788
88063.20025230577,88063.20025230577,0.16958845447214765,0.1699892689488289
88063.20525230578,88063.20525230578,0.16968163023790428,0.16996708269630031
88063.21025230578,88063.21025230578,0.6934912909009995,0.16993308504990878
88063.21525230579,88063.21525230579,0.16983246622659878,0.1991540345137548
88063.2202523058,88063.2202523058,0.16988967343253078,0.16982891618369733
88063.2252523058,88063.2252523058,0.1699351697214428,0.1697590059026844
88063.2302523058,88063.2302523058,0.16996861457336773,0.1696770617718368
88063.2352523058,88063.2352523058,0.16998993528705686,0.16958302301036995
88063.24025230581,88063.24025230581,0.1699994134843596,0.16947718190718858
88063.24525230582,88063.24525230582,0.18932990258761637,0.1693594088621623
88063.25025230582,88063.25025230582,0.16998220844792483,0.16922950711710988
88063.25525230583,88063.25525230583,0.1699557262617044,0.16908789638390567
88063.26025230583,88063.26025230583,0.16991705548133912,0.16893418522847384
88063.26525230584,88063.26525230584,0.16986646630248717,0.1687686534522522
88063.27025230584,88063.27025230584,0.16980393461154533,0.16859128853498584
88063.27525230584,88063.27525230584,0.16972938786646932,0.16840203014683544
88063.28025230585,88063.28025230585,0.1696429590655595,0.16820102137105122
88063.28525230585,88063.28525230585,0.1695444837473707,0.16798811116966736
88063.29025230586,88063.29025230586,0.16943402643628167,0.16776337499845811
88063.29525230586,88063.29525230586,0.16931169164281368,0.1675269274779566
88063.30025230587,88063.30025230587,0.16917712507882346,0.16727843135233808
88063.30525230587,88063.30525230587,0.16903114040213005,0.16701869908558767
88063.31025230588,88063.31025230588,0.16887288254549868,0.3726193363040866
88063.31525230588,88063.31525230588,0.168702886368775,0.16646357466090564
88063.32025230589,88063.32025230589,0.16852099001703552,0.16616857262810003
88063.32525230589,88063.32525230589,0.16832732053792474,0.16586203109302697
88063.3302523059,88063.3302523059,0.1681218270631698,0.16554391177872202
88063.3352523059,88063.3352523059,0.1679043835728856,0.4197336101232008
88063.3402523059,88063.3402523059,0.16767519731215313,0.16487281991806169
88063.34525230591,88063.34525230591,0.1674343033847642,0.16452010773793946
88063.35025230591,88063.35025230591,0.2697788013255852,0.16415582007877416
88063.35525230592,88063.35525230592,0.16691715207386273,0.16378020929432027
88063.36025230592,88063.36025230592,0.16664112619428292,0.16339327213837426
88063.36525230593,88063.36525230593,0.16635335836649384,0.16299491994319917
88063.37025230593,88063.37025230593,0.16605397281303472,0.16258528535050737
88063.37525230594,88063.37525230594,0.21176458091637818,0.16216438156212698
88063.38025230594,88063.38025230594,0.16542039665965527,0.16173226333932852
88063.38525230595,88063.38525230595,0.16508617166985054,0.16128886673014156
88063.39025230595,88063.39025230595,0.16474058450955437,0.16083448292416824
88063.39525230596,88063.39525230596,0.16438348235856015,0.16036897610979592
88063.40025230596,88063.40025230596,0.164015088787072,0.15989257404573864
88063.40525230597,88063.40525230597,0.16363504687424069,0.15940494477321535
88063.41025230597,88063.41025230597,0.16324387051113248,0.15890659551599012
88063.41525230597,88063.41525230597,0.16284114714700176,0.15839714149689862
88063.42025230598,88063.42025230598,0.28623340027457767,0.4011098494808729
88063.42525230598,88063.42525230598,0.16200213885846013,0.15734600600889642
88063.43025230599,88063.43025230599,0.16156580104609647,0.15680429816891223
88063.435252306,88063.435252306,0.1611182987600032,0.15625190233588898
88063.440252306,88063.440252306,0.1606597089848696,0.1556889045455974
88063.445252306,88063.445252306,0.1601899193231597,0.1551152100546535
88063.45025230601,88063.45025230601,0.15970928350239186,0.15453116895662375
88063.45525230601,88063.45525230601,0.15921759176637398,0.1539365937301207
88063.46025230602,88063.46025230602,0.15871484665337982,0.15333149978514968
88063.46525230602,88063.46525230602,0.5697390099760747,0.1527163583274888
88063.47025230603,88063.47025230603,0.1576772825299706,0.812013393048946
88063.47525230603,88063.47525230603,0.15714212405385367,0.15145497508120156
88063.48025230604,88063.48025230604,0.15659634420316276,0.15080905386208748
88063.48525230604,88063.48525230604,0.15604002727836275,0.15015316753828475
88063.49025230604,88063.49025230604,0.15547297010304068,0.1494871371180464
88063.49525230605,88063.49525230605,0.1548953933454537,0.1488111841365423
88063.50025230605,88063.50025230605,0.1543073576477913,0.14812537883761115
88063.50525230606,88063.50525230606,0.15370880911527113,0.14742968378423998
88063.51025230606,88063.51025230606,0.15309968861818274,0.3708190987107669
88063.51525230607,88063.51525230607,0.15248072607956029,0.14600919732875747
88063.52025230607,88063.52025230607,0.15185129203341996,0.14528452689963114
88063.52525230608,88063.52525230608,0.15121170990278038,0.14455036263606327
88063.53025230608,88063.53025230608,0.15056202368554736,0.143806759217835
88063.53525230609,88063.53525230609,0.14990223489615728,0.14305373178908223
88063.54025230609,88063.54025230609,0.14923248211894238,0.14229142338543949
88063.5452523061,88063.5452523061,0.14855266897365443,0.14151975843861478
88063.5502523061,88063.5502523061,0.14786320135115655,0.1407391279842957
88063.5552523061,88063.5552523061,0.49454696278431926,0.13994925259286134
88063.56025230611,88063.56025230611,0.3734373983496966,0.13915051465224593
88063.56525230611,88063.56525230611,0.14573609638842752,0.13834286400108414
88063.57025230612,88063.57025230612,0.14500781184223804,0.13752632706760112
88063.57525230612,88063.57525230612,0.4805510017465212,0.1367010191031153
88063.58025230613,88063.58025230613,0.14352281675382547,0.13586708023220856
88063.58525230613,88063.58525230613,0.1427662715637767,0.13502455168958846
88063.59025230614,88063.59025230614,0.14200043286184225,0.13417350521571514
88063.59525230614,88063.59525230614,0.14122518720821267,0.13331385242783306
88063.60025230615,88063.60025230615,0.14044115290395306,0.13244617331262384
88063.60525230615,88063.60525230615,0.13964797290463346,0.1315701567317319
88063.61025230616,88063.61025230616,0.1388458745860867,0.1306860252858851
88063.61525230616,88063.61525230616,0.13803475116243344,0.12979369763753873
88063.62025230617,88063.62025230617,0.13721488647330587,0.1288934471335384
88063.62525230617,88063.62525230617,0.1363863737983072,0.12798537368485574
88063.63025230617,88063.63025230617,0.13554915542771717,0.12706944106755588
88063.63525230618,88063.63525230618,0.13470337055667558,0.12614579108481205
88063.64025230618,88063.64025230618,0.1338491424625079,0.12521455091440925
88063.64525230619,88063.64525230619,0.13298636073800857,0.1242756382217386
88063.6502523062,88063.6502523062,0.1321155210605756,0.12332951356348874
88063.6552523062,88063.6552523062,0.1312364240524497,0.12237601481945541
88063.6602523062,88063.6602523062,0.13034922490755016,0.7775734627778593
88063.66525230621,88063.66525230621,0.19366065564908846,0.19165029225812752
88063.67025230621,88063.67025230621,0.12855064911848366,0.11947239059663897
88063.67525230622,88063.67525230622,0.1276395484938322,0.11849048096202436
88063.68025230622,88063.68025230622,0.12672074474692593,0.4498576934146813
88063.68525230623,88063.68525230623,0.12579420018163476,0.11650625999463002
88063.69025230623,88063.69025230623,0.12486005737547239,0.11550407709874455
88063.69525230624,88063.69525230624,0.12391845244598415,0.1144953648131268
88063.70025230624,88063.70025230624,0.1229695386980961,0.11348027528289997
88063.70525230624,88063.70525230624,0.12201322459639762,0.30176975486656443
88063.71025230625,88063.71025230625,0.12104970953165223,0.11143097462361076
88063.71525230625,88063.71525230625,0.12007915016833062,0.11039711099051423
88063.72025230626,88063.72025230626,0.11910154862992872,0.1093571780182459
88063.72525230626,88063.72525230626,0.11811701117778041,0.1083112873025241
88063.73025230627,88063.73025230627,0.11712571284071087,0.10725960898646952
88063.73525230627,88063.73525230627,0.11612768403862311,0.10620218940142159
88063.74025230628,88063.74025230628,0.11512302270686524,0.10513913282625448
88063.74525230628,88063.74525230628,0.25822766924820273,0.10407057375158185
88063.75025230629,88063.75025230629,0.11309435266916233,0.12468160187312549
88063.75525230629,88063.75525230629,0.8214774835244635,0.10191740227393366
88063.7602523063,88063.7602523063,0.11104035099382106,0.1008329083817286
88063.7652523063,88063.7652523063,0.11000417316313306,0.09974337928327541
88063.7702523063,88063.7702523063,0.10896196347180906,0.09864884981363418
88063.77525230631,88063.77525230631,0.10791390198733519,0.09754949209673529
88063.78025230631,88063.78025230631,0.10686001582597919,0.09644535203980403
88063.78525230632,88063.78525230632,0.10580046979512582,0.198244204876233
88063.79025230632,88063.79025230632,0.10473534579201334,0.09422329338240486
88063.79525230633,88063.79525230633,0.10366470749032396,0.09310554277976886
88063.80025230633,88063.80025230633,0.10258868500431093,0.0919834676956277
88063.80525230634,88063.80525230634,0.10150747940560283,0.09085725474030644
88063.81025230634,88063.81025230634,0.10042106902200913,0.08972691313912394
88063.81525230635,88063.81525230635,0.09932966563080174,0.08859263745559035
88063.82025230635,88063.82025230635,0.0982333086559419,0.08745448620152496
88063.82525230636,88063.82525230636,0.0971321167051168,0.08631258038519012
88063.83025230636,88063.83025230636,0.09602620934973496,0.0851670416726887
88063.83525230637,88063.83525230637,0.09491567680416386,0.08401796919390798
88063.84025230637,88063.84025230637,0.09380059902556115,0.08286545503979796
88063.84525230638,88063.84525230638,0.09268130468132076,0.08170977705106956
88063.85025230638,88063.85025230638,0.09155768502760411,0.08055088478265338
88063.85525230638,88063.85525230638,0.09042988541380378,0.07938891945610299
88063.86025230639,88063.86025230639,0.08929804005793478,0.07822401323227049
88063.8652523064,88063.8652523064,0.08816224407539536,0.0770562698491195
88063.8702523064,88063.8702523064,0.08702268476172154,0.07588585828263225
88063.8752523064,88063.8752523064,0.0858793772688648,0.20703882189128076
88063.88025230641,88063.88025230641,0.08473248981559298,0.07353732793861217
88063.88525230641,88063.88525230641,0.3526559477139399,0.07235947444800105
88063.89025230642,88063.89025230642,0.08242836343236833,0.0711793586843809
88063.89525230642,88063.89525230642,0.08127146496583879,0.06999719486182474
88063.90025230643,88063.90025230643,0.08011138204198415,0.0688129939488363
88063.90525230643,88063.90525230643,0.07894830653590025,0.06762692314387468
88063.91025230644,88063.91025230644,0.07778233669919599,0.06643908941235357
88063.91525230644,88063.91525230644,0.0766135438097582,0.06524958546316728
88063.92025230645,88063.92025230645,0.07544211151622797,0.06405856974289569
88063.92525230645,88063.92525230645,0.0742681620086522,0.06286616280191934
88063.93025230645,88063.93025230645,0.07309175075261708,0.19976644602978738
88063.93525230646,88063.93525230646,0.07191305719330714,0.06047758465622592
88063.94025230646,88063.94025230646,0.07073214440494464,0.05928165770151454
88063.94525230647,88063.94525230647,0.06954920064890624,0.05808482120664955
88063.95025230647,88063.95025230647,0.06836425382445772,0.056887156108971756
88063.95525230648,88063.95525230648,0.06717749167082578,0.05568881093281114
88063.96025230648,88063.96025230648,0.0659890146568972,0.05448989768662781
88063.96525230649,88063.96525230649,0.06479893614075662,0.05329053461257405
88063.97025230649,88063.97025230649,0.0636073737287295,0.05209084194843271
88063.9752523065,88063.9752523065,0.06241446849468163,0.050890941950292944
88063.9802523065,88063.9802523065,0.06122030115804826,0.050309049188834304
88063.9852523065,88063.9852523065,0.06002501473206896,0.05150900858622974
88063.99025230651,88063.99025230651,0.05882871649881088,0.052708813162797345
88063.99525230651,88063.99525230651,0.057631559191903235,0.05390835402057212
88064.00025230652,88064.00025230652,0.05643363485789049,0.055107505844801175
88064.00525230652,88064.00525230652,0.05523505465090222,0.05630613739531168
88064.01025230653,88064.01025230653,0.05403595695592687,0.057504143643541415
88064.01525230653,88064.01525230653,0.05283645405265588,0.0587013958685508
88064.02025230654,88064.02025230654,0.05163666979772282,0.0598977858183899
88064.02525230654,88064.02525230654,0.050436720661433704,0.061093187277345355
88064.03025230655,88064.03025230655,0.050763272762915514,0.06228747014738379
88064.03525230655,88064.03525230655,0.05196318852086477,0.06348051890851795
88064.04025230656,88064.04025230656,0.05316291035892158,0.06467223704020791
88064.04525230656,88064.04525230656,0.0543623125719958,0.06586247122979869
88064.05025230657,88064.05025230657,0.05556127964696214,0.0670511253385913
88064.05525230657,88064.05525230657,0.05675969734764706,0.06823809315721771
88064.06025230658,88064.06025230658,0.05795741090733857,0.12613963158238806
88064.06525230658,88064.06525230658,0.05915437074894852,0.07060639765823018
88064.07025230658,88064.07025230658,0.060350392315688464,0.0717875150326215
88064.07525230659,88064.07525230659,0.0615453606073529,0.07296641816822791
88064.0802523066,88064.0802523066,0.06273919581066907,0.07414306934512173
88064.0852523066,88064.0852523066,0.06393177733886926,0.07531734256181148
88064.0902523066,88064.0902523066,0.06512294902904457,0.0764890519094906
88064.09525230661,88064.09525230661,0.06631259883427448,0.07765809566120141
88064.10025230661,88064.10025230661,0.06750062778477313,0.0788243914226096
88064.10525230662,88064.10525230662,0.06868688923153916,0.079987776216665
88064.11025230662,88064.11025230662,0.06987131144547438,0.08114820943709701
88064.11525230663,88064.11525230663,0.07105372829417811,0.08230549865867709
88064.12025230663,88064.12025230663,0.0722340371211519,0.08345955356117772
88064.12525230664,88064.12525230664,0.07341211169875969,0.08461024664158841
88064.13025230664,88064.13025230664,0.07458787836911226,0.08575752785612742
88064.13525230665,88064.13525230665,0.07576118431893919,0.0869012297275814
88064.14025230665,88064.14025230665,0.0769318751794688,0.08804118581539998
88064.14525230665,88064.14525230665,0.07809988987985922,0.08917736234777217
88064.15025230666,88064.15025230666,0.07926511596430046,0.09030965082687166
88064.15525230666,88064.15525230666,0.08042738157741225,0.0914378615300222
88064.16025230667,88064.16025230667,0.0815866608028025,0.0925620049787273
88064.16525230667,88064.16525230667,0.08274271316054713,0.09368180020766254
88064.17025230668,88064.17025230668,0.08389554724583007,0.09479730200986693
88064.17525230668,88064.17525230668,0.08504495012657362,0.09590826896579582
88064.18025230669,88064.18025230669,0.08619085346830309,0.09701465184978039
88064.18525230669,88064.18525230669,0.08733315691020369,0.09811635827705065
88064.1902523067,88064.1902523067,0.08847169033343795,0.09921320584573208
88064.1952523067,88064.1952523067,0.089606442253045,0.10030521619998574
88064.2002523067,88064.2002523067,0.09073719703244268,0.10139214925013036
88064.20525230671,88064.20525230671,0.09186384463602477,0.10247390113675287
88064.21025230672,88064.21025230672,0.09298635556796146,0.10355046807403318
88064.21525230672,88064.21525230672,0.0941045749577025,0.10462168852107862
88064.22025230672,88064.22025230672,0.09521837288492235,0.10568743291994778
88064.22525230673,88064.22525230673,0.09632761873664669,0.106747571385865
88064.23025230673,88064.23025230673,0.09743221634747928,0.1078020164215193
88064.23525230674,88064.23525230674,0.09853213812518005,0.10885076342105948
88064.24025230674,88064.24025230674,0.09962718139029733,0.10989359438916821
88064.24525230675,88064.24525230675,0.10071722738580455,0.1109303943784521
88064.25025230675,88064.25025230675,0.10180224819056748,0.11196115729321124
88064.25525230676,88064.25525230676,0.10288203678591915,0.5267798513761764
88064.26025230676,88064.26025230676,0.10395661135691772,0.1140039563403358
88064.26525230677,88064.26525230677,0.10502572975483958,0.11501577845667156
88064.27025230677,88064.27025230677,0.10608933551371143,0.1160210872831963
88064.27525230678,88064.27525230678,0.10714734754024187,0.11701981207568149
88064.28025230678,88064.28025230678,0.10819964208439134,0.11801183177047322
88064.28525230678,88064.28525230678,0.10924615047502313,0.17527664212468044
88064.29025230679,88064.29025230679,0.11028678757058774,0.11997550986549942
88064.2952523068,88064.2952523068,0.11132129406006887,0.12094681391776614
88064.3002523068,88064.3002523068,0.26260062249604577,0.12191104432235793
88064.3052523068,88064.3052523068,0.11337183681092017,0.12286807553078537
88064.31025230681,88064.31025230681,0.1143877055625715,0.12381788379922114
88064.31525230681,88064.31525230681,0.11539704367791259,0.12476020504986993
88064.32025230682,88064.32025230682,0.11639996267450908,0.12569518809519553
88064.32525230682,88064.32525230682,0.1173961600342276,0.12662250839175204
88064.33025230683,88064.33025230683,0.11838567562836343,0.1275422321469839
88064.33525230683,88064.33525230683,0.11936830339287839,0.12845414572203676
88064.34025230684,88064.34025230684,0.12034397874935764,0.1293581963796282
88064.34525230684,88064.34525230684,0.12131260447444438,0.13025429419346235
88064.35025230685,88064.35025230685,0.12227418318447725,0.13114246137015306
88064.35525230685,88064.35525230685,0.12322852658937779,0.13202250525011763
88064.36025230685,88064.36025230685,0.1241754302814832,0.3633385698502097
88064.36525230686,88064.36525230686,0.12511504250661812,0.13375777848959355
88064.37025230686,88064.37025230686,0.552631795572627,0.13461295160433032
88064.37525230687,88064.37525230687,0.126971547538025,0.4909817573230308
88064.38025230687,88064.38025230687,0.12788829739874166,0.13629771264918147
88064.38525230688,88064.38525230688,0.12879714957687205,0.13712708720600805
88064.39025230688,88064.39025230688,0.32168693186402014,0.13794798090020507
88064.39525230689,88064.39525230689,0.13059143282032215,0.13875995692212334
88064.40025230689,88064.40025230689,0.13147647499045687,0.13956305722444848
88064.4052523069,88064.4052523069,0.13235341888725968,0.3334666753552501
88064.4102523069,88064.4102523069,0.1332221455080326,0.14114243761250217
88064.4152523069,88064.4152523069,0.13408243469592068,0.14191837935824422
88064.42025230691,88064.42025230691,0.13493438782803283,0.14268520827861486
88064.42525230692,88064.42525230692,0.1357777953273037,0.3375625139933769
88064.43025230692,88064.43025230692,0.13661273263993481,0.1441909881774625
88064.43525230692,88064.43525230692,0.13743888631921558,0.14492971239077862
88064.44025230693,88064.44025230693,0.1382563655391863,0.14565901907917503
88064.44525230693,88064.44525230693,0.13906496478044342,0.1463787010257231
88064.45025230694,88064.45025230694,0.1398648140267521,0.1470889143454266
88064.45525230694,88064.45525230694,0.14065551253574732,0.14778924119962664
88064.46025230695,88064.46025230695,0.14143714892480697,0.14847979297985192
88064.46525230695,88064.46525230695,0.1422096702397215,0.14916052772800073
88064.47025230696,88064.47025230696,0.14297309897986432,0.14983148436295093
88064.47525230696,88064.47525230696,0.14372711258485193,0.17432001216930454
88064.48025230697,88064.48025230697,0.14447168956972126,0.15114306033283043
88064.48525230697,88064.48525230697,0.1452069028841964,0.1517837646791901
88064.49025230698,88064.49025230698,0.21327290741505686,0.15241430380894097
88064.49525230698,88064.49525230698,0.14664864048408746,0.15303451710789173
88064.50025230699,88064.50025230699,0.14735514551232134,0.15364457326380274
88064.50525230699,88064.50525230699,0.1480518048665676,0.15424414760068
88064.510252307,88064.510252307,0.1487386242107692,0.1548332606209575
88064.515252307,88064.515252307,0.14941564777926103,0.15541197329450532
88064.520252307,88064.520252307,0.15008273382532414,0.15598014901434057
88064.52525230701,88064.52525230701,0.15073982501026595,0.1565377408374132
88064.53025230701,88064.53025230701,0.1513868193084994,0.15708465462835455
88064.53525230702,88064.53525230702,0.15202356289984859,0.15762074175212434
88064.54025230702,88064.54025230702,0.25041193099065007,0.15814623435328126
88064.54525230703,88064.54525230703,0.30957728538189694,0.30518550637607367
88064.55025230703,88064.55025230703,0.1538727001925234,0.15916461231866488
88064.55525230704,88064.55525230704,0.1544684600109897,0.159657548143084
88064.56025230704,88064.56025230704,0.1550535393920488,0.16013927306954492
88064.56525230705,88064.56525230705,0.15562829560321487,0.1606101751868739
88064.57025230705,88064.57025230705,0.826403277717657,0.16107004639212097
88064.57525230706,88064.57525230706,0.15674597473970825,0.16151865776324473
88064.58025230706,88064.58025230706,0.15728877173045358,0.16195613278511523
88064.58525230706,88064.58525230706,0.1578208102689602,0.1623823815083568
88064.59025230707,88064.59025230707,0.1583423026547418,0.1627976378612122
88064.59525230707,88064.59525230707,0.15885280264171545,0.163201449592532
88064.60025230708,88064.60025230708,0.15935250309954102,0.16359403029962696
88064.60525230708,88064.60525230708,0.1598411650585299,0.1639751442922285
88064.61025230709,88064.61025230709,0.16031888203249497,0.16434490139261992
88064.61525230709,88064.61525230709,0.16078560648392654,0.16470326474240274
88064.6202523071,88064.6202523071,0.16124114087087912,0.16505004234585216
88064.6252523071,88064.6252523071,0.16168559100242222,0.16538535624487918
88064.6302523071,88064.6302523071,0.1621189488875226,0.16570921044038067
88064.63525230711,88064.63525230711,0.16254100398234464,0.16602139987624007
88064.64025230712,88064.64025230712,0.16295181300454303,0.1663219955287782
88064.64525230712,88064.64525230712,0.16335148244923023,0.1666111191206446
88064.65025230712,88064.65025230712,0.335699105303687,0.16688826778703011
88064.65525230713,88064.65525230713,0.16411642691096362,0.16715399495110317
88064.66025230713,88064.66025230713,0.1644818565001559,0.16740793062878828
88064.66525230714,88064.66525230714,0.16483588446288494,0.16765017318633374
88064.67025230714,88064.67025230714,0.16517834424903124,0.16788056405953045
88064.67525230715,88064.67525230715,0.16550935820172522,0.16809924054615788
88064.68025230715,88064.68025230715,0.16582868111938995,0.6290787451318913
88064.68525230716,88064.68525230716,0.1661365317566135,0.168500969770623
88064.69025230716,88064.69025230716,0.16643283010149396,0.16868418804122914
88064.69525230717,88064.69525230717,0.16671746398987125,0.16885551618837435
88064.70025230717,88064.70025230717,0.16699025093606137,0.16901478044898863
88064.70525230718,88064.70525230718,0.16725147707498253,0.16916228395399507
88064.71025230718,88064.71025230718,0.16750098685770776,0.1692978801480251
88064.71525230719,88064.71525230719,0.16773868715380155,0.16942148625569975
88064.72025230719,88064.72025230719,0.16796465910501718,0.1695331964196545
88064.7252523072,88064.7252523072,0.16817882928007302,0.16963294788415623
88064.7302523072,88064.7302523072,0.3664751292480803,0.16972078539051882
88064.7352523072,88064.7352523072,0.1685717354535004,0.16979659224672228
88064.74025230721,88064.74025230721,0.16875045353336823,0.16986049028171407
88064.74525230721,88064.74525230721,0.16891713714712908,0.16991224138966657
88064.75025230722,88064.75025230722,0.16907201565923716,0.1699520887048399
88064.75525230722,88064.75525230722,0.16921486240680533,0.16997981546923982
88064.76025230723,88064.76025230723,0.16934611949816908,0.1699958781628197
88064.76525230723,88064.76525230723,0.49790269067386067,0.2685268003337356
88064.77025230724,88064.77025230724,0.16957239764874063,0.16999158149122565
88064.77525230724,88064.77525230724,0.16966758572347362,0.16997141350172335
88064.78025230725,88064.78025230725,0.1697508272329818,0.16993926865017622
88064.78525230725,88064.78525230725,0.16982216271958037,0.16989519901533054
88064.79025230726,88064.79025230726,0.16988140200429663,0.16983902579738144
88064.79525230726,88064.79525230726,0.16992870387953857,0.16977091945179876
88064.80025230726,88064.80025230726,0.1699640784167796,0.1696909014335469
88064.80525230727,88064.80525230727,0.16998740863304931,0.16959886642570893
88064.81025230727,88064.81025230727,0.16999873963229237,0.16949487107029473
88064.81525230728,88064.81525230728,0.16999807442148787,0.16937892983899516
88064.82025230728,88064.82025230728,0.16998539939249493,0.16925104075855563
88064.82525230729,88064.82525230729,0.16996068481648513,0.16911118584411203
88064.83025230729,88064.83025230729,0.16992400066933386,0.1689594461642322
88064.8352523073,88064.8352523073,0.16987541298760084,0.1687958986345509
88064.8402523073,88064.8402523073,0.1698147332030176,0.16862036785285908
88064.8452523073,88064.8452523073,0.16974210434451006,0.1684330071296242
88064.85025230731,88064.85025230731,0.16965749288955,0.16823379481470363
88064.85525230732,88064.85525230732,0.16956097595503886,0.16802281863365745
88064.86025230732,88064.86025230732,0.16945240406412343,0.1677999425653921
88064.86525230733,88064.86525230733,0.16933176848206055,0.16756516988232345
88064.87025230733,88064.87025230733,0.1691994406794687,0.16731887816034144
88064.87525230733,88064.87525230733,0.2182581713810151,0.16706086686333033
88064.88025230734,88064.88025230734,0.7043185868740902,0.21007306763006378
88064.88525230734,88064.88525230734,0.1687307631196122,0.331805979252965
88064.89025230735,88064.89025230735,0.16855081774663772,0.16621639743382305
88064.89525230735,88064.89525230735,0.16835884339159357,0.1659115166953445
88064.90025230736,88064.90025230736,0.16815517221270304,0.16559518110786595
88064.90525230736,88064.90525230736,0.16793962993416134,0.16526723164624754
88064.91025230737,88064.91025230737,0.16771242897935365,0.5191539567397633
88064.91525230737,88064.91525230737,0.167473456983574,0.16457705083556842
88064.92025230738,88064.92025230738,0.16722268619029518,0.16421470602370805
88064.92525230738,88064.92525230738,0.16696002575251734,0.16384077674321648
88064.93025230739,88064.93025230739,0.16668581735655588,0.16345560757667496
88064.93525230739,88064.93525230739,0.16640002157849587,0.16305917168094988
88064.9402523074,88064.9402523074,0.16610246690254113,0.16265131428935098
88064.9452523074,88064.9452523074,0.1657931539173531,0.1622320482915045
88064.9502523074,88064.9502523074,0.1654724525548441,0.16180174429012417
88064.95525230741,88064.95525230741,0.16513993180462094,0.16135999686334074
88064.96025230741,88064.96025230741,0.16479641173594112,0.16090761117963512
88064.96525230742,88064.96525230742,0.16444114586974448,0.16044387730369614
88064.97025230742,88064.97025230742,0.16407456268108683,0.1599692212728435
88064.97525230743,88064.97525230743,0.1636962828580112,0.4128336137834035
