timestamp,sample_timestamp,unityTimestamp,localTimestamp,emg1,emg2,rms1,rms2,left_processed,right_processed
14802.5522402,14802.5522402,14802.5522402,14802.5522402,0.08307055840479242,0.16827513407229358,0.08307055840479242,0.16827513407229358,0.0,0.30468422419459656
14802.5572402,14802.5572402,14802.5572402,14802.5572402,0.0819153937114702,0.16806649947464514,0.08249499803196919,0.1681708491277684,0.0,0.3034227691005484
14802.562240199999,14802.562240199999,14802.562240199999,14802.562240199999,0.08075703919698074,0.16784606455099318,0.08191977535054623,0.1680626573414069,0.0,0.3021140559333577
14802.567240199998,14802.567240199998,14802.567240199998,14802.567240199998,0.07959561842037828,0.16761388272925473,0.08134496181721144,0.16795057610912043,0.0,0.30075829511803864
14802.572240199997,14802.572240199997,14802.572240199997,14802.572240199997,0.07843122227857535,0.16736987700753755,0.0807706232243947,0.16783459702401055,0.0,0.29935538496278064
14802.577240199997,14802.577240199997,14802.577240199997,14802.577240199997,0.07726398071274462,0.16711412319884458,0.08019683139611877,0.1677147329860929,0.0,0.2979054815091919
14802.582240199996,14802.582240199996,14802.582240199996,14802.582240199996,0.07609392723507229,0.16684626957300927,0.07962364720350848,0.16759094232002938,0.0,0.2964080806426293
14802.587240199995,14802.587240199995,14802.587240199995,14802.587240199995,0.07492137482639852,0.166567213278365,0.07905116125317135,0.1674633184362057,0.0,0.294864312276979
14802.592240199994,14802.592240199994,14802.592240199994,14802.592240199994,0.07374637865327617,0.3123735150991761,0.07847945033805671,0.18912926711312894,0.0,0.5569406978024972
14802.597240199993,14802.597240199993,14802.597240199993,14802.597240199993,0.1381384474441778,0.16597449441314877,0.0863211722525589,0.18694289232395112,0.0,0.530493796690701
14802.602240199993,14802.602240199993,14802.602240199993,14802.602240199993,0.07138927956657581,0.16566050212602831,0.08507209617708446,0.1851092679446611,0.0,0.5083138470886028
14802.607240199992,14802.607240199992,14802.607240199992,14802.607240199992,0.07020743586101535,0.16533487569154057,0.08393398252881684,0.1835427908756404,0.0,0.48936537387012713
14802.612240199991,14802.612240199991,14802.612240199991,14802.612240199991,0.06902359664086832,0.16499786078925444,0.08288231599963058,0.18218329042985992,0.0,0.47292053832364706
14802.61724019999,14802.61724019999,14802.61724019999,14802.61724019999,0.0678378275546322,0.164649180623003,0.0818994107855772,0.18098719760048643,0.0,0.4584523195463601
14802.62224019999,14802.62224019999,14802.62224019999,14802.62224019999,0.06665030131484118,0.16428920612193795,0.08097219748518837,0.1799222170795039,0.0,0.4455700659346609
14802.627240199989,14802.627240199989,14802.627240199989,14802.627240199989,0.06546108143415529,0.16391760478107417,0.08009080965778559,0.1789638657905602,0.0,0.4339776244673919
14802.632240199988,14802.632240199988,14802.632240199988,14802.632240199988,0.06427033377187387,0.16353474062210901,0.07900259599994892,0.17868899916868808,0.0,0.4306527734841261
14802.637240199987,14802.637240199987,14802.637240199987,14802.637240199987,0.06307814983825458,0.1631404461609295,0.07791473065786825,0.1784034388174813,0.0,0.4271985686482501
14802.642240199986,14802.642240199986,14802.642240199986,14802.642240199986,0.32313068268669043,0.3225772891261144,0.110403527675046,0.19123421467292753,0.0,0.5824026360918809
14802.647240199985,14802.647240199985,14802.647240199985,14802.647240199985,0.06069000175785904,0.1623181683840121,0.10965024983189757,0.19094848321751365,0.0,0.5789463615394734
14802.652240199985,14802.652240199985,14802.652240199985,14802.652240199985,0.05949426418183137,0.16189017573584727,0.10890332509087679,0.19065297748123597,0.0,0.5753718549983313
14802.657240199984,14802.657240199984,14802.657240199984,14802.657240199984,0.058297561034553816,0.16145079337132728,0.10816302232064608,0.19034773338338623,0.0,0.5716795509566134
14802.662240199983,14802.662240199983,14802.662240199983,14802.662240199983,0.05710004638511389,0.16100050769597268,0.10742961646344053,0.19003283260318052,0.0,0.5678704374252321
14802.667240199982,14802.667240199982,14802.667240199982,14802.667240199982,0.05590181157143946,0.16053897084167948,0.10670337390014958,0.18970828989770716,0.0,0.5639446929093817
14802.672240199981,14802.672240199981,14802.672240199981,14802.672240199981,0.05470298898396744,0.16006641493442247,0.10598456511035864,0.17745982086608075,0.0,0.41578434507984235
14802.67724019998,14802.67724019998,14802.67724019998,14802.67724019998,0.05350369442507097,0.15958279140162554,0.10108908921124758,0.17709300926084326,0.0,0.41134730606055175
14802.68224019998,14802.68224019998,14802.68224019998,14802.68224019998,0.05230405360213377,0.1590883271921578,0.10035666025080664,0.17671598625144408,0.0,0.4067867475068184
14802.687240199979,14802.687240199979,14802.687240199979,14802.687240199979,0.05110418208106847,0.1585830040899693,0.09963241863317185,0.1763288094752583,0.0,0.40210336661381985
14802.692240199978,14802.692240199978,14802.692240199978,14802.692240199978,0.05009580184534918,0.15806671465289193,0.09892270781790226,0.17593151668893775,0.0,0.39729762009485226
14802.697240199977,14802.697240199977,14802.697240199977,14802.697240199977,0.05129577363079935,0.28314422747421836,0.09829818141039892,0.18511680061242172,0.0,0.5084049640006526
14802.702240199977,14802.702240199977,14802.702240199977,14802.702240199977,0.05249561956210986,0.15700174131399475,0.09776056429656266,0.18472112112437145,0.0,0.5036187323151112
14802.707240199976,14802.707240199976,14802.707240199976,14802.707240199976,0.05369521434397478,0.15645321267062395,0.09731137837061825,0.1843161190775427,0.0,0.4987197327768926
14802.712240199975,14802.712240199975,14802.712240199975,14802.712240199975,0.05489443993432675,0.15589404384310734,0.09695191897881308,0.18390185044343738,0.0,0.49370864243038237
14802.717240199974,14802.717240199974,14802.717240199974,14802.717240199974,0.0560931682839267,0.5284986224420469,0.09668324054609369,0.22274063368269284,0.0,0.9635116536594583
14802.722240199973,14802.722240199973,14802.722240199973,14802.722240199973,0.05729129832964145,0.15474391834744683,0.05501774646115922,0.21120248150463475,0.0,0.8239434647211344
14802.727240199973,14802.727240199973,14802.727240199973,14802.727240199973,0.05848869751617695,0.15415317202616263,0.05486853050383268,0.21081980216491117,0.0,0.819314485872086
14802.732240199972,14802.732240199972,14802.732240199972,14802.732240199972,0.05968524861040716,0.15355201191336176,0.05488149259173627,0.21042956290652431,0.0,0.814594060477692
14802.737240199971,14802.737240199971,14802.737240199971,14802.737240199971,0.060880834774911415,0.15294052321498416,0.055056517601155416,0.21003185176324093,0.0,0.809783253414997
14802.74224019997,14802.74224019997,14802.74224019997,14802.74224019997,0.062075327037248364,0.15231867888887204,0.05539204196873667,0.20962673322802047,0.0,0.8048828448059313
14802.74724019997,14802.74724019997,14802.74724019997,14802.74724019997,0.06326860072398503,0.5083962009502175,0.05588512565749432,0.24184031566864206,0.0,1.0
14802.752240199969,14802.752240199969,14802.752240199969,14802.752240199969,0.0644605605547299,0.2355817303494971,0.0565315747941542,0.2456706773060024,0.0,1.0
14802.757240199968,14802.757240199968,14802.757240199968,14802.757240199968,0.3810532065455808,0.15039193112254795,0.10996363151084615,0.24530801717471876,0.0,1.0
14802.762240199967,14802.762240199967,14802.762240199967,14802.762240199967,0.23029553990046167,0.1497295771258408,0.12343326277681411,0.24493956181328666,0.0,1.0
14802.767240199966,14802.767240199966,14802.767240199966,14802.767240199966,0.06802727432637043,0.14905717488231016,0.1239426274485954,0.24456539197858904,0.0,1.0
14802.772240199965,14802.772240199965,14802.772240199965,14802.772240199965,0.06921275522665032,0.14837502363646224,0.12451636802678713,0.2441856052033238,0.0,1.0
14802.777240199965,14802.777240199965,14802.777240199965,14802.777240199965,0.07039626407845172,0.14768277638760344,0.12509835932905397,0.23659898899638646,0.0,1.0
14802.782240199964,14802.782240199964,14802.782240199964,14802.782240199964,0.07157777501105667,0.146980967599157,0.1256883994029136,0.2361963118317252,0.0,1.0
14802.787240199963,14802.787240199963,14802.787240199963,14802.787240199963,0.07275712437543218,0.14626943721455876,0.12628628266150832,0.23578808070949236,0.0,1.0
14802.792240199962,14802.792240199962,14802.792240199962,14802.792240199962,0.0739341657227712,0.14554814607259237,0.12689180044944215,0.23537438449123843,0.0,1.0
14802.797240199961,14802.797240199961,14802.797240199961,14802.797240199961,0.07510886453177222,0.14481750382582884,0.12750474558421834,0.1981285771735857,0.0,0.6657984583389663
14802.80224019996,14802.80224019996,14802.80224019996,14802.80224019996,0.0762810190661699,0.14407724912376055,0.12812490569494514,0.19762519812368642,0.0,0.6597094675491291
14802.80724019996,14802.80724019996,14802.80724019996,14802.80724019996,0.07745056361552609,0.14332765044942858,0.1287520692592553,0.19711530855574846,0.0,0.6535417240094852
14802.812240199959,14802.812240199959,14802.812240199959,14802.812240199959,0.07861734928691907,0.14256867071097215,0.12938602226570314,0.19659900867280894,0.0,0.6472964397994215
14802.817240199958,14802.817240199958,14802.817240199958,14802.817240199958,0.07978127427560554,0.141800438398584,0.13002655012679282,0.19607640157392361,0.0,0.6409748620292441
14802.822240199957,14802.822240199957,14802.822240199957,14802.822240199957,0.08094220468433164,0.14102297779817044,0.13067343697132577,0.19554759401413457,0.0,0.6345782820329251
14802.827240199957,14802.827240199957,14802.827240199957,14802.827240199957,0.0821000557021658,0.1402364611370656,0.13132646757868166,0.15268868497024887,0.0,0.11614688826929881
14802.832240199956,14802.832240199956,14802.832240199956,14802.832240199956,0.08325473418028967,0.13944102268214753,0.13198542634594007,0.14512201750149822,0.0,0.024618707793367643
14802.837240199955,14802.837240199955,14802.837240199955,14802.837240199955,0.08440602023550779,0.48820292688853195,0.09375675786204728,0.185857937060649,0.0,0.5173699239213555
14802.842240199954,14802.842240199954,14802.842240199954,14802.842240199954,0.085553929120362,0.13782319639524002,0.07702625908039731,0.18528138254647986,0.0,0.5103957855909713
14802.847240199953,14802.847240199953,14802.847240199953,14802.847240199953,0.08669823236572725,0.1370010259429382,0.07818950810762361,0.1846987904702685,0.0,0.5033486154971961
14802.852240199953,14802.852240199953,14802.852240199953,14802.852240199953,0.08783891331762213,0.1361702669767674,0.07935003782944543,0.18411027354351484,0.0,0.4962297770247103
14802.857240199952,14802.857240199952,14802.857240199952,14802.857240199952,0.08897573645232701,0.13533072436331692,0.08050772623542941,0.18351595429679862,0.0,0.4890407523320813
14802.862240199951,14802.862240199951,14802.862240199951,14802.862240199951,0.090108715557898,0.13448276930271172,0.08166245560290478,0.1829159469036217,0.0,0.4817829224887067
14802.86724019995,14802.86724019995,14802.86724019995,14802.86724019995,0.09123771170809175,0.13362642107729517,0.08281410936998033,0.18231037584522577,0.0,0.4744577932488176
14802.87224019995,14802.87224019995,14802.87224019995,14802.87224019995,0.09236250682864929,0.3118125882668619,0.08396256575791647,0.1949095940477518,0.0,0.626860885132918
14802.877240199949,14802.877240199949,14802.877240199949,14802.877240199949,0.20742251033905687,0.13188839167307792,0.09688206601409236,0.19433515444868657,0.0,0.6199123293105694
14802.882240199948,14802.882240199948,14802.882240199948,14802.882240199948,0.2463669913287632,0.13100725875419725,0.11320778903998742,0.1937561425162982,0.0,0.6129084654743129
14802.887240199947,14802.887240199947,14802.887240199947,14802.887240199947,0.09571118717810802,0.13011796131759856,0.1140773031588221,0.19317268063167461,0.0,0.6058507739744284
14802.892240199946,14802.892240199946,14802.892240199946,14802.892240199946,0.09681841025964708,0.12922060237761437,0.11494868814283528,0.19258489863067066,0.0,0.5987408253358004
14802.897240199945,14802.897240199945,14802.897240199945,14802.897240199945,0.6298735051798947,0.1283153309982476,0.19393729580954577,0.19199292804823087,0.7001339483666907,0.5915802106359005
14802.902240199945,14802.902240199945,14802.902240199945,14802.902240199945,0.09901869592518651,0.127402200779977,0.1944607699733857,0.1913969029309658,0.7071175146134274,0.5843705513338997
14802.907240199944,14802.907240199944,14802.907240199944,14802.907240199944,0.10011147904310028,0.1264812497392638,0.19498745889610614,0.19079695240104189,0.7141439683284672,0.5771134093217407
14802.912240199943,14802.912240199943,14802.912240199943,14802.912240199943,0.1011993654489373,0.36832612607187354,0.19551721580720324,0.2089670980484843,0.7212113514752779,0.7969037433044839
14802.917240199942,14802.917240199942,14802.917240199942,14802.917240199942,0.10228208902547062,0.1246167806304908,0.19604989102193876,0.17245709851675,0.7283176671390966,0.3552702447904421
14802.922240199941,14802.922240199941,14802.922240199941,14802.922240199941,0.10335956063037954,0.12367323980348353,0.19658533139282008,0.17178530387520516,0.7354608722092333,0.3471440595909447
14802.92724019994,14802.92724019994,14802.92724019994,14802.92724019994,0.10443173903539477,0.12272239040984012,0.19712338853555236,0.17110934991227703,0.7426389871198856,0.33896756226661834
14802.93224019994,14802.93224019994,14802.93224019994,14802.93224019994,0.10549838631643661,0.12176415250716813,0.1976639066297836,0.17042936976679254,0.74984993310227,0.3307423632958712
14802.937240199939,14802.937240199939,14802.937240199939,14802.937240199939,0.10655958206041516,0.12079886622463004,0.19820673906902442,0.16974552320866848,0.7570917543079392,0.32247039529300636
14802.942240199938,14802.942240199938,14802.942240199938,14802.942240199938,0.1076150702236317,0.11982643464954651,0.1987517303883422,0.16905794893904894,0.7643623767096895,0.3141533360195221
14802.947240199937,14802.947240199937,14802.947240199937,14802.947240199937,0.1086648194369921,0.11884704760810416,0.19929872808539656,0.16836679488301828,0.7716597658036802,0.30579297481185685
14802.952240199937,14802.952240199937,14802.952240199937,14802.952240199937,0.10970868928677449,0.11786076102945964,0.19984758131208694,0.1521146998763699,0.7789819091549601,0.10920383024804788
14802.957240199936,14802.957240199936,14802.957240199936,14802.957240199936,0.6176967108316206,0.11686767803060766,0.24717782324643148,0.15134513888084664,1.0,0.09989504035125574
14802.962240199935,14802.962240199935,14802.962240199935,14802.962240199935,0.11177846815157577,0.11586798838694627,0.24100671053979905,0.15057143360635186,1.0,0.09053612028616795
14802.967240199934,14802.967240199934,14802.967240199934,14802.967240199934,0.11280406083721498,0.11486158543887519,0.24146840854366372,0.14979373439926408,1.0,0.08112888867776316
14802.972240199933,14802.972240199933,14802.972240199933,14802.972240199933,0.11382342479711373,0.11384875164319301,0.24193153017190291,0.14901220168502902,1.0,0.07167528606977623
14802.977240199933,14802.977240199933,14802.977240199933,14802.977240199933,0.11483640046795461,0.11282952775996136,0.18589994133369225,0.1482269919291149,0.5929091771976762,0.062177205105127246
14802.982240199932,14802.982240199932,14802.982240199932,14802.982240199932,0.11584293272857611,0.11180405926637427,0.1865066174976032,0.14743826782049319,0.6010027250242002,0.05263661370768796
14802.987240199931,14802.987240199931,14802.987240199931,14802.987240199931,0.11684285304845074,0.4458367662338996,0.18711384201847903,0.18210258109730598,0.6091035883735438,0.47194425934923767
14802.99224019993,14802.99224019993,14802.99224019993,14802.99224019993,0.11783612780783163,0.10973466494166997,0.18772144913543728,0.1594833773116264,0.6172095558622548,0.19833707694461986
14802.99724019993,14802.99724019993,14802.99724019993,14802.99724019993,0.11882252234872973,0.10869088828865683,0.1883292737351985,0.15875364747814277,0.625318424746425,0.1895100941052658
14803.002240199929,14803.002240199929,14803.002240199929,14803.002240199929,0.1198020915918515,0.10764129252410154,0.18893715686474208,0.15802197375179347,0.6334280744649529,0.18065959748289295
14803.007240199928,14803.007240199928,14803.007240199928,14803.007240199928,0.12077474986546638,0.106585988173638,0.18954493860184313,0.15728852762949008,0.6415363715267725,0.17178766154427816
14803.012240199927,14803.012240199927,14803.012240199927,14803.012240199927,0.12174018871857759,0.1055249118798087,0.19015245594441557,0.15655348386675602,0.6496411413529932,0.16289640017312937
14803.017240199926,14803.017240199926,14803.017240199926,14803.017240199926,0.12269852921612966,0.29175976036263435,0.1907595490024676,0.1700505962682144,0.6577402508825645,0.3261606304153743
14803.022240199925,14803.022240199925,14803.022240199925,14803.022240199925,0.12364963237750573,0.10338635250598176,0.1913660623023732,0.16937488894875935,0.6658316259723058,0.3179871165482187
14803.027240199925,14803.027240199925,14803.027240199925,14803.027240199925,0.12459333659562218,0.10230899777152878,0.1919718360461061,0.16869872524754093,0.6739131347880605,0.30980808218044936
14803.032240199924,14803.032240199924,14803.032240199924,14803.032240199924,0.12552954972859462,0.10122639038089278,0.19257671275180352,0.16802227931167088,0.6819826763951558,0.30162563383628466
14803.037240199923,14803.037240199923,14803.037240199923,14803.037240199923,0.12645822304318638,0.5283304293906231,0.11932495032255613,0.2117160199968995,0.0,0.8301553465033674
14803.042240199922,14803.042240199922,14803.042240199922,14803.042240199922,0.12737933960302603,0.09904599377949105,0.1202981116141994,0.21118171797710292,0.0,0.8236923042329672
14803.047240199921,14803.047240199921,14803.047240199921,14803.047240199921,0.12829267367420108,0.09794838233618097,0.12126428382467644,0.2106484319186997,0.0,0.8172415512693396
14803.05224019992,14803.05224019992,14803.05224019992,14803.05224019992,0.12919815351548272,0.09684596021122573,0.12222336502881032,0.2101163058396816,0.0,0.8108048296878163
14803.05724019992,14803.05724019992,14803.05724019992,14803.05724019992,0.13009561394890887,0.09573879675267649,0.12317525249612848,0.2095854847288673,0.0,0.8043838933070785
14803.062240199919,14803.062240199919,14803.062240199919,14803.062240199919,0.1309852039528548,0.09462713980329496,0.12411985735348052,0.2090561160405654,0.0,0.7979805257689511
14803.067240199918,14803.067240199918,14803.067240199918,14803.067240199918,0.13186666295391813,0.09351100136681229,0.1250570840459653,0.17840355232488098,0.0,0.4271999416603199
14803.072240199917,14803.072240199917,14803.072240199917,14803.072240199917,0.13273990946314398,0.09239049832596213,0.12598683434907346,0.17778841835262424,0.0,0.41975913717642904
14803.077240199917,14803.077240199917,14803.077240199917,14803.077240199917,0.13360491841104585,0.09126577486617894,0.12690902284587616,0.17717492762630638,0.0,0.4123382097799721
14803.082240199916,14803.082240199916,14803.082240199916,14803.082240199916,0.13446149656643364,0.0901368907223018,0.12782354883398456,0.17656324838478835,0.0,0.40493919452758287
14803.087240199915,14803.087240199915,14803.087240199915,14803.087240199915,0.13530969604439247,0.08900402567114493,0.1287303207831163,0.17595355114946784,0.0,0.39756415408599394
14803.092240199914,14803.092240199914,14803.092240199914,14803.092240199914,0.13614933966180084,0.08786724863775877,0.12962925426092436,0.1753460116722189,0.0,0.39021521439100343
14803.097240199913,14803.097240199913,14803.097240199913,14803.097240199913,0.13698044204256396,0.14579725265870214,0.13052025929771133,0.16356815514977738,0.0,0.24774750560669737
14803.102240199913,14803.102240199913,14803.102240199913,14803.102240199913,0.1378027508969326,0.08558247082823672,0.13140323815500576,0.1629241164419423,0.0,0.23995706267687905
14803.107240199912,14803.107240199912,14803.107240199912,14803.107240199912,0.13861632932886905,0.08443468719569107,0.13227810740881266,0.16228261784442224,0.0,0.23219734551587545
14803.112240199911,14803.112240199911,14803.112240199911,14803.112240199911,0.13942104593373875,0.08328345949354851,0.13314478101598465,0.16164384487714986,0.0,0.2244705982162077
14803.11724019991,14803.11724019991,14803.11724019991,14803.11724019991,0.1402168136407363,0.08212890045258482,0.1340031706810124,0.09541744961488953,0.0,0.0
14803.12224019991,14803.12224019991,14803.12224019991,14803.12224019991,0.14100345322820304,0.08097109185742013,0.1348531779625548,0.09434578815750584,0.0,0.0
14803.127240199909,14803.127240199909,14803.127240199909,14803.127240199909,0.14178115050807572,0.0798102406622165,0.13569473051359765,0.09327172427954175,0.0,0.0
14803.132240199908,14803.132240199908,14803.132240199908,14803.132240199908,0.142549560634523,0.07864637260031426,0.13652773815964367,0.09219542583393674,0.0,0.0
14803.137240199907,14803.137240199907,14803.137240199907,14803.137240199907,0.1433088309958289,0.5056019772026337,0.13735213068616262,0.15460986928046852,0.0,0.13938598328695592
14803.142240199906,14803.142240199906,14803.142240199906,14803.142240199906,0.1440587504713347,0.0763102224781359,0.13816781571635325,0.15397571669951876,0.0,0.13171512526152312
14803.147240199905,14803.147240199905,14803.147240199905,14803.147240199905,0.14479918505709422,0.07513811625850186,0.13897470812881899,0.15334555961706622,0.0,0.12409259772095112
14803.152240199905,14803.152240199905,14803.152240199905,14803.152240199905,0.1455301883302282,0.07396350921388412,0.13977273163581364,0.15271958923601048,0.0,0.11652071350025896
14803.157240199904,14803.157240199904,14803.157240199904,14803.157240199904,0.1462515300126443,0.07278647966406178,0.14056179689695472,0.15209799409891453,0.0,0.10900175325441205
14803.162240199903,14803.162240199903,14803.162240199903,14803.162240199903,0.14696336898236942,0.07160720143010706,0.14134183689600166,0.15148096604239236,0.0,0.10153803748398732
14803.167240199902,14803.167240199902,14803.167240199902,14803.167240199902,0.1476654411491716,0.070425746638327,0.14211276472847376,0.15086869257198432,0.008753034061636493,0.09413183429988137
14803.172240199901,14803.172240199901,14803.172240199901,14803.172240199901,0.14835782782344029,0.06924226628557084,0.14287450979060123,0.1502613632207376,0.01891532567402327,0.08678543633818822
14803.1772401999,14803.1772401999,14803.1772401999,14803.1772401999,0.1490403971994348,0.06805686404783214,0.14362699242779514,0.1467631029696477,0.028954049090313187,0.04446966166778367
14803.1822401999,14803.1822401999,14803.1822401999,14803.1822401999,0.1497129310738981,0.06686963229969388,0.14437013429844972,0.14615439668021044,0.038868159170494604,0.037106607939502476
14803.187240199899,14803.187240199899,14803.187240199899,14803.187240199899,0.1503755409196944,0.06568072271351728,0.14510386094706432,0.145551207406027,0.048656662618322605,0.029810289318839927
14803.192240199898,14803.192240199898,14803.192240199898,14803.192240199898,0.15102806297264584,0.22949766938626157,0.1458280955320192,0.15505956703516977,0.05831853430480519,0.14482563256742212
14803.197240199897,14803.197240199897,14803.197240199897,14803.197240199897,0.1516706378153307,0.06329832745351704,0.14654277589915507,0.1545066809305934,0.06785294504348216,0.13813779285842318
14803.202240199897,14803.202240199897,14803.202240199897,14803.202240199897,0.15230305443028294,0.062105085688989814,0.14724783726302135,0.1539597664949485,0.07725903054435172,0.13152218785432712
14803.207240199896,14803.207240199896,14803.207240199896,14803.207240199896,0.15292506387611812,0.060910612476953174,0.14794318795155723,0.1534189898987047,0.08653556782841354,0.12498082759202203
14803.212240199895,14803.212240199895,14803.212240199895,14803.212240199895,0.15353686674138645,0.0597150582711739,0.14862877034578117,0.15288451925509083,0.09568178821212525,0.11851574560846631
14803.217240199894,14803.217240199894,14803.217240199894,14803.217240199894,0.1541383028398144,0.05851853149700232,0.14930450791773892,0.08723885273457473,0.10469667075104423,0.0
14803.222240199893,14803.222240199893,14803.222240199893,14803.222240199893,0.1547293646619018,0.057321155997018335,0.1499703366615887,0.08632509183795034,0.1135793615557776,0.0
14803.227240199893,14803.227240199893,14803.227240199893,14803.227240199893,0.1553099937261832,0.05612305030554978,0.15062619713471836,0.08541677380424618,0.12232906761408364,0.0
14803.232240199892,14803.232240199892,14803.232240199892,14803.232240199892,0.15587995934563675,0.27783466604088286,0.1512720120805643,0.10852934652457737,0.13094475826128568,0.0
14803.237240199891,14803.237240199891,14803.237240199891,14803.237240199891,0.1564393972290978,0.0537251098118357,0.15190772717278125,0.1078327468568905,0.13942570874025711,0.0
14803.24224019989,14803.24224019989,14803.24224019989,14803.24224019989,0.3448710524322066,0.0525255220676339,0.17076173681841245,0.10714410853118021,0.3909533570410387,0.0
14803.24724019989,14803.24724019989,14803.24724019989,14803.24724019989,0.15752638022003101,0.051325684799910516,0.17131159661113474,0.10646369686942445,0.39828892879251704,0.0
14803.252240199889,14803.252240199889,14803.252240199889,14803.252240199889,0.15805368438913542,0.05018800878635243,0.17185268622569397,0.10579362126424856,0.4055074993156098,0.0
14803.257240199888,14803.257240199888,14803.257240199888,14803.257240199888,0.15857018946354787,0.0510742723610689,0.17238492487688153,0.10519431108561664,0.4126079908706785,0.0
14803.262240199887,14803.262240199887,14803.262240199887,14803.262240199887,0.15907583331184338,0.052274148431897066,0.17290824087685372,0.10467644440931527,0.4195894470842472,0.0
14803.267240199886,14803.267240199886,14803.267240199886,14803.267240199886,0.15957052908224773,0.05347379472931005,0.17342255235672688,0.10424131187220292,0.42645077575958107,0.0
14803.272240199885,14803.272240199885,14803.272240199885,14803.272240199885,0.16005444779368322,0.22623968858126087,0.17392779699993657,0.10379524135558493,0.43319114554360466,0.0
14803.277240199885,14803.277240199885,14803.277240199885,14803.277240199885,0.16052729024371817,0.055871935512165696,0.174423888423737,0.10352844686621432,0.4398094040210325,0.0
14803.282240199884,14803.282240199884,14803.282240199884,14803.282240199884,0.16098904896307203,0.057070182694498865,0.1749107520892692,0.10334716767189235,0.4463045567835534,0.0
14803.287240199883,14803.287240199883,14803.287240199883,14803.287240199883,0.16143981576370303,0.0582677306019548,0.17538833308105975,0.10325188217716061,0.4526758712145962,0.0
14803.292240199882,14803.292240199882,14803.292240199882,14803.292240199882,0.16187929454372474,0.05946444159197167,0.17585654925401129,0.10324284188248097,0.4589222514325135,0.0
14803.297240199881,14803.297240199881,14803.297240199881,14803.297240199881,0.16230759865701966,0.06066020658127981,0.1763153344912046,0.10332007081560113,0.46504281538444125,0.0
14803.30224019988,14803.30224019988,14803.30224019988,14803.30224019988,0.1627246689885085,0.0618549046425285,0.17676462040604124,0.103483364253921,0.47103665073816997,0.0
14803.30724019988,14803.30724019988,14803.30724019988,14803.30724019988,0.1631305018501317,0.06304842058570338,0.17720434230700272,0.10373229168143218,0.4769028944568273,0.0
14803.312240199879,14803.312240199879,14803.312240199879,14803.312240199879,0.16352506547930643,0.06424063713244736,0.17763444701016828,0.07870076683427289,0.48264083702414795,0.0
14803.317240199878,14803.317240199878,14803.317240199878,14803.317240199878,0.16390824950713392,0.06543142680841176,0.17805486820865463,0.07925270318525898,0.48824959385299416,0.0
14803.322240199877,14803.322240199877,14803.322240199877,14803.322240199877,0.1642799654217838,0.06662066253041243,0.16111107226811464,0.07991215395758246,0.26220573229170047,0.0
14803.327240199877,14803.327240199877,14803.327240199877,14803.327240199877,0.16464039184792215,0.06780825641344124,0.16155500995804767,0.08067638723625124,0.2681282180249573,0.0
14803.332240199876,14803.332240199876,14803.332240199876,14803.332240199876,0.1649891985937014,0.0689940453720436,0.1619878098006779,0.0815399493311245,0.27390211591977215,0.0
14803.337240199875,14803.337240199875,14803.337240199875,14803.337240199875,0.3418968184026261,0.07017794465222661,0.1788137539857572,0.08242290944010802,0.4983737403041311,0.0
14803.342240199874,14803.342240199874,14803.342240199874,14803.342240199874,0.16565244890000916,0.07135983323185865,0.17918659110588728,0.08331274482850547,0.5033476872675712,0.0
14803.347240199873,14803.347240199873,14803.347240199873,14803.347240199873,0.1659668288021126,0.07253959910151184,0.17954936393395698,0.0842091005803449,0.5081873684826989,0.0
14803.352240199873,14803.352240199873,14803.352240199873,14803.352240199873,0.1662695396411574,0.0737170981182484,0.1799020078715351,0.06505217895776044,0.5128919221545012,0.0
14803.357240199872,14803.357240199872,14803.357240199872,14803.357240199872,0.16656055039766232,0.07489221018744317,0.18024447373899208,0.06623619939434763,0.517460692187177,0.0
14803.362240199871,14803.362240199871,14803.362240199871,14803.362240199871,0.1668399727717873,0.07606484710202452,0.18057671978337828,0.0674187478447183,0.5218931215628065,0.0
14803.36724019987,14803.36724019987,14803.36724019987,14803.36724019987,0.1671075935117128,0.07723485049413685,0.1808986873465112,0.06859969691831053,0.526188427734071,0.0
14803.37224019987,14803.37224019987,14803.37224019987,14803.37224019987,0.16736368387024508,0.24791417553404158,0.1812103504935111,0.09124832645500394,0.5303462647088214,0.0
14803.377240199869,14803.377240199869,14803.377240199869,14803.377240199869,0.1676079928522374,0.12161487861748965,0.1815116629692576,0.09497717861810502,0.5343660154065604,0.0
14803.382240199868,14803.382240199868,14803.382240199868,14803.382240199868,0.16784046128601235,0.08072813811850754,0.18180257892304627,0.09585850066237973,0.5382470681420243,0.0
14803.387240199867,14803.387240199867,14803.387240199867,14803.387240199867,0.16806115010320757,0.20904220576017069,0.18208305673326403,0.10803505647432143,0.541988867649429,0.0
14803.392240199866,14803.392240199866,14803.392240199866,14803.392240199866,0.16827011490042726,0.08304181591964549,0.18235306024952258,0.10883308853773706,0.5455909316535276,0.0
14803.397240199865,14803.397240199865,14803.397240199865,14803.397240199865,0.16846723194136537,0.0841937620548929,0.18261255284401814,0.1096362099528989,0.5490527715099669,0.0
14803.402240199865,14803.402240199865,14803.402240199865,14803.402240199865,0.16865251164895195,0.08534229193626794,0.18286150393567435,0.11044415179241103,0.5523739792425993,0.0
14803.407240199864,14803.407240199864,14803.407240199864,14803.407240199864,0.16882580679213588,0.08648725132923818,0.18309986488885047,0.1112566446462238,0.555553906012872,0.0
14803.412240199863,14803.412240199863,14803.412240199863,14803.412240199863,0.1689873329927222,0.08762859643219104,0.18332761852358165,0.11207342689696063,0.5585923226262401,0.0
14803.417240199862,14803.417240199862,14803.417240199862,14803.417240199862,0.1691369994217167,0.08876619158512945,0.1676040985395326,0.1128942373185438,0.3488279234914056,0.0
14803.422240199861,14803.422240199861,14803.422240199861,14803.422240199861,0.16927470248045504,0.08989989472633982,0.16783014714087907,0.11371881616203058,0.3518435935884842,0.0
14803.42724019986,14803.42724019986,14803.42724019986,14803.42724019986,0.169400421636734,0.09102958865228829,0.1680444225527397,0.11454690604755985,0.3547021998715499,0.0
14803.43224019986,14803.43224019986,14803.43224019986,14803.43224019986,0.1695143464602345,0.09215523005667255,0.16824691695925248,0.11537825695102794,0.35740363807071973,0.0
14803.437240199859,14803.437240199859,14803.437240199859,14803.437240199859,0.16961617815306576,0.09327660650488158,0.16843760565918353,0.11621261684064933,0.3599475786516722,0.0
14803.442240199858,14803.442240199858,14803.442240199858,14803.442240199858,0.1697060833698461,0.09439366759485725,0.16861646757905577,0.11704973849943535,0.36233374047727895,0.0
14803.447240199857,14803.447240199857,14803.447240199857,14803.447240199857,0.16978398923598076,0.09550627823287124,0.16878349027175096,0.11788937811981359,0.3645619574929747,0.0
14803.452240199857,14803.452240199857,14803.452240199857,14803.452240199857,0.169849945793431,0.09661434900231536,0.16893864766913907,0.10315018831115863,0.36663188192894447,0.0
14803.457240199856,14803.457240199856,14803.457240199856,14803.457240199856,0.16990395805356773,0.09771777421778916,0.1690819295701704,0.10154985422040616,0.3685433776949831,0.0
14803.462240199855,14803.462240199855,14803.462240199855,14803.462240199855,0.1699458921539262,0.0988163926559608,0.16921332104957884,0.10254438473425423,0.37029624567603997,0.0
14803.467240199854,14803.467240199854,14803.467240199854,14803.467240199854,0.1699758820104209,0.09991014948384859,0.16933281183464807,0.09169549049341094,0.37189034882581967,0.0
14803.472240199853,14803.472240199853,14803.472240199853,14803.472240199853,0.16999393703146104,0.10099894170842111,0.1694403887950174,0.09281495389490863,0.37332551197475317,0.0
14803.477240199853,14803.477240199853,14803.477240199853,14803.477240199853,0.1699999175083306,0.10208260253417889,0.16953603772409273,0.09393019976138514,0.3746015455954519,0.0
14803.482240199852,14803.482240199852,14803.482240199852,14803.482240199852,0.16999373460004671,0.10316098245152142,0.16961973822213527,0.09504110963908177,0.3757181775389984,0.0
14803.487240199851,14803.487240199851,14803.487240199851,14803.487240199851,0.16997592820920657,0.10423421285890752,0.16969151287046905,0.09614758409298327,0.3766757090584114,0.0
14803.49224019985,14803.49224019985,14803.49224019985,14803.49224019985,0.16994583720080372,0.10530189114621714,0.16975132943407722,0.09724950006200886,0.3774737101126479,0.0
14803.49724019985,14803.49724019985,14803.49724019985,14803.49724019985,0.1699038645106794,0.10636409050557691,0.169799186562478,0.09834674854104267,0.3781121626851947,0.0
14803.502240199849,14803.502240199849,14803.502240199849,14803.502240199849,0.16984982513489713,0.10742061741124972,0.16983507778043377,0.09943921672016792,0.37859098039117584,0.0
14803.507240199848,14803.507240199848,14803.507240199848,14803.507240199848,0.1697839158942275,0.10847145741509368,0.16985901020417102,0.10052679873243939,0.37891025816677415,0.0
14803.512240199847,14803.512240199847,14803.512240199847,14803.512240199847,0.16970606819947923,0.10951647113460695,0.1698709748398282,0.10160938294433522,0.3790698760266452,0.0
14803.517240199846,14803.517240199846,14803.517240199846,14803.517240199846,0.16961605947397987,0.1105554387222394,0.1698709674335135,0.10268685619008686,0.37906977722045204,0.0
14803.522240199845,14803.522240199845,14803.522240199845,14803.522240199845,0.16951416895049565,0.111588390076775,0.1698589907781983,0.10375911142677284,0.37890999900867856,0.0
14803.527240199845,14803.527240199845,14803.527240199845,14803.527240199845,0.20916720456017984,0.11261521440396442,0.1725828685794243,0.10482604298268741,0.41524871901987964,0.0
14803.532240199844,14803.532240199844,14803.532240199844,14803.532240199844,0.16927454934293462,0.11363571544841655,0.17254753211123947,0.10588753821592509,0.41477730212189146,0.0
14803.537240199843,14803.537240199843,14803.537240199843,14803.537240199843,0.16913689868416534,0.11464991430608777,0.17250042553155784,0.10694349309424417,0.41414886247273924,0.0
14803.542240199842,14803.542240199842,14803.542240199842,14803.542240199842,0.16898734434828994,0.11565765441489421,0.17244155988823254,0.10799380335533044,0.41336354745966686,0.0
14803.547240199841,14803.547240199841,14803.547240199841,14803.547240199841,0.16882574723425828,0.1166587490954469,0.17237092955509045,0.10903835643393622,0.4124212820250013,0.0
14803.55224019984,14803.55224019984,14803.55224019984,14803.55224019984,0.16865242452736084,0.11765326581889361,0.17228854782066846,0.11007705128472968,0.4113222434485092,0.0
14803.55724019984,14803.55724019984,14803.55724019984,14803.55724019984,0.16846710118479005,0.1186409400614158,0.17219441984121525,0.11110977973134313,0.4100665005186939,0.0
14803.562240199839,14803.562240199839,14803.562240199839,14803.562240199839,0.16826997782109826,0.11962177652051979,0.17208856862526578,0.11213644354889814,0.4086543601879119,0.0
14803.567240199838,14803.567240199838,14803.567240199838,14803.567240199838,0.16806107015561028,0.12059567588085576,0.17197098489918886,0.11315693125576971,0.40708569873846656,0.0
14803.572240199837,14803.572240199837,14803.572240199837,14803.572240199837,0.16784041634873098,0.12156255256285156,0.171841702617079,0.11417114986014258,0.4053609691452799,0.0
14803.577240199837,14803.577240199837,14803.577240199837,14803.577240199837,0.16760785008790843,0.12252219527267458,0.17170072079945045,0.11517898895619781,0.40348015834122375,0.0
14803.582240199836,14803.582240199836,14803.582240199836,14803.582240199836,0.16736353443445637,0.12347459220472222,0.1715480599440088,0.11618034951817889,0.4014435397821724,0.0
14803.587240199835,14803.587240199835,14803.587240199835,14803.587240199835,0.16710750851955816,0.12441965758874149,0.1713837308563899,0.11717512853294758,0.3992512576239964,0.0
14803.592240199834,14803.592240199834,14803.592240199834,14803.592240199834,0.16683981256071917,0.12535730691810706,0.1712077511219296,0.11816322632681346,0.39690354646921555,0.0
14803.597240199833,14803.597240199833,14803.597240199833,14803.597240199833,0.16656036943722016,0.1262873799741358,0.17102014752347894,0.11914454619417457,0.39440076362259746,0.0
14803.602240199833,14803.602240199833,14803.602240199833,14803.602240199833,0.16626925365709,0.4978731881570875,0.1708209342008373,0.17002803241135506,0.391743097720435,0.3258876927223432
14803.607240199832,14803.607240199832,14803.607240199832,14803.607240199832,0.16596659140222952,0.1281245776816991,0.1678300209620777,0.17071288575077084,0.3518419102618193,0.33417183898732267
14803.612240199831,14803.612240199831,14803.612240199831,14803.612240199831,0.1656523905280501,0.12903157033850934,0.16760397825128343,0.17139543096671217,0.3488263187494436,0.3424280656506012
14803.61724019983,14803.61724019983,14803.61724019983,14803.61724019983,0.16532655502078522,0.12993061366030398,0.1673661920216136,0.1720755033437339,0.34565405925285314,0.3506543802756071
14803.62224019983,14803.62224019983,14803.62224019983,14803.62224019983,0.1649891348581967,0.13082162781833842,0.1671166822500859,0.17275294261174587,0.34232539828152675,0.3588488441978231
14803.627240199829,14803.627240199829,14803.627240199829,14803.627240199829,0.36297801377506533,0.13170453585517417,0.18542159281878834,0.17342759438750424,0.5865276233911716,0.3670095899614023
14803.632240199828,14803.632240199828,14803.632240199828,14803.632240199828,0.16427991105593934,0.13257937605878975,0.1851760854924467,0.1740993049811791,0.5832523582568063,0.37513475849819516
14803.637240199827,14803.637240199827,14803.637240199827,14803.637240199827,0.163908054172818,0.4894168821496468,0.18492018688038228,0.21071638222283803,0.5798384650157516,0.8180634940501283
14803.642240199826,14803.642240199826,14803.642240199826,14803.642240199826,0.250118464407359,0.13430400839334258,0.19061939648413118,0.21126856383610004,0.6558705035978661,0.8247428120673216
14803.647240199825,14803.647240199825,14803.647240199825,14803.647240199825,0.16313039868476548,0.13515380368764648,0.19035149604232038,0.2118185737040031,0.6522964962978844,0.8313958601444145
14803.652240199825,14803.652240199825,14803.652240199825,14803.652240199825,0.16272463503521076,0.13599509363929838,0.19007366568912484,0.21236627291726676,0.6485900159958528,0.8380209580022432
14803.657240199824,14803.657240199824,14803.657240199824,14803.657240199824,0.16230740805042718,0.1368276380099075,0.18978594480245636,0.2129115215519805,0.6447515880247762,0.8446164130884406
14803.662240199823,14803.662240199823,14803.662240199823,14803.662240199823,0.16187910004641173,0.13765161457719846,0.18948838484957645,0.21345418832691865,0.6407818989993056,0.8511806373945776
14803.667240199822,14803.667240199822,14803.667240199822,14803.667240199822,0.16143959199550026,0.1384668169895771,0.18918102943121676,0.2139941378346589,0.6366815305882589,0.857711993000786
14803.672240199821,14803.672240199821,14803.672240199821,14803.672240199821,0.160988880099155,0.13927312481926651,0.1888639203909065,0.21453123393528656,0.63245104101796,0.8642088331267979
14803.67724019982,14803.67724019982,14803.67724019982,14803.67724019982,0.16052705897304897,0.1400704961723593,0.18853710954382363,0.21506534572339656,0.6280911215445452,0.8706695743101984
14803.68224019982,14803.68224019982,14803.68224019982,14803.68224019982,0.16005428215716214,0.14085893940666416,0.1882006534472242,0.17888773997661445,0.6236025266872849,0.4330567888067157
14803.687240199819,14803.687240199819,14803.687240199819,14803.687240199819,0.15957046080624712,0.14163826508058727,0.18785459766592724,0.17952344327273423,0.6189858643175018,0.4407464046457481
14803.692240199818,14803.692240199818,14803.692240199818,14803.692240199818,0.15907562239128314,0.14240837619794092,0.1874989894938028,0.18015438976390685,0.6142417653734491,0.448378481058938
14803.697240199817,14803.697240199817,14803.697240199817,14803.697240199817,0.4638547761448576,0.7284058310547404,0.2165528689108779,0.2540893982400307,1.0,1.0
14803.702240199817,14803.702240199817,14803.702240199817,14803.702240199817,0.1580534897066494,0.14392098406762893,0.21622930703360144,0.25453164195705236,0.9975273020600576,1.0
14803.707240199816,14803.707240199816,14803.707240199816,14803.707240199816,0.15752609040621618,0.14466315206470154,0.20017855189153624,0.2549709604687999,0.7833973228027897,1.0
14803.712240199815,14803.712240199815,14803.712240199815,14803.712240199815,0.15698794947193645,0.2434691734262105,0.19981250106367462,0.26003160845977236,0.7785139104347516,1.0
14803.717240199814,14803.717240199814,14803.717240199814,14803.717240199814,0.15643917178796227,0.14611908866358633,0.1994379498660109,0.23233662296192367,0.7735170962988032,1.0
14803.722240199813,14803.722240199813,14803.722240199813,14803.722240199813,0.15587980804801008,0.14683275635161486,0.19334994211721865,0.23280990013003514,0.6922981778473913,1.0
14803.727240199813,14803.727240199813,14803.727240199813,14803.727240199813,0.15530967652919053,0.14753657636016576,0.1929470086766474,0.23327929669841996,0.6869227217702215,1.0
14803.732240199812,14803.732240199812,14803.732240199812,14803.732240199812,0.3142354273516337,0.6063729068057528,0.20431614098496068,0.2761228350870143,0.838596088151102,1.0
14803.737240199811,14803.737240199811,14803.737240199811,14803.737240199811,0.1541380978576522,0.14891508733080283,0.20392036220895596,0.2765134514828368,0.833316081051981,1.0
14803.74224019981,14803.74224019981,14803.74224019981,14803.74224019981,0.15353662682420635,0.14958951018226715,0.2035167190183076,0.27690071282140993,0.8279311563381053,1.0
14803.74724019981,14803.74724019981,14803.74724019981,14803.74724019981,0.15292488908890875,0.15025405820127455,0.2031052926684226,0.277284522058887,0.8224423980219384,1.0
14803.752240199809,14803.752240199809,14803.752240199809,14803.752240199809,0.1523027436304041,0.15090846909261632,0.2026861589934945,0.27766477782590654,0.8168508177925967,1.0
14803.757240199808,14803.757240199808,14803.757240199808,14803.757240199808,0.4371926168113724,0.1515528576982085,0.22675362625165676,0.2780413847681091,1.0,1.0
14803.762240199807,14803.762240199807,14803.762240199807,14803.762240199807,0.1510279268216349,0.6643465500884386,0.22636632006214139,0.32194984897728274,1.0,1.0
14803.767240199806,14803.767240199806,14803.767240199806,14803.767240199806,0.5515863835360466,0.1528109990287493,0.26204152584514995,0.3222690148960423,1.0,1.0
14803.772240199805,14803.772240199805,14803.772240199805,14803.772240199805,0.1497126935639773,0.15342475763117713,0.26169651044328496,0.32258488205004854,1.0,1.0
14803.777240199805,14803.777240199805,14803.777240199805,14803.777240199805,0.14904009625348472,0.15402813664396126,0.23754114304025437,0.26904062311751403,1.0,1.0
14803.782240199804,14803.782240199804,14803.782240199804,14803.782240199804,0.14835755997899805,0.15462107603550704,0.237149975514494,0.2694114114252989,1.0,1.0
14803.787240199803,14803.787240199803,14803.787240199803,14803.787240199803,0.14766527351815004,0.15520364501585715,0.23675308050120014,0.26977778836938887,1.0,1.0
14803.792240199802,14803.792240199802,14803.792240199802,14803.792240199802,0.1469631443770751,0.15577561219290867,0.2363505457412144,0.26569127814355487,1.0,1.0
14803.797240199801,14803.797240199801,14803.797240199801,14803.797240199801,0.5123051981459344,0.15633691800216654,0.2659615443457427,0.26605452077105274,1.0,1.0
14803.8022401998,14803.8022401998,14803.8022401998,14803.8022401998,0.14552985607353966,0.15688774275815345,0.2655947469341285,0.26641298225843935,1.0,1.0
14803.8072401998,14803.8072401998,14803.8072401998,14803.8072401998,0.35418595769720945,0.1574276381310441,0.27726067501882906,0.2667665709165047,1.0,1.0
14803.812240199799,14803.812240199799,14803.812240199799,14803.812240199799,0.14405835080075452,0.15795711039963872,0.2683263655540251,0.2230320605252967,1.0,0.9670368209481671
14803.817240199798,14803.817240199798,14803.817240199798,14803.817240199798,0.14330849661380105,0.15847567725168676,0.26795095017715576,0.22344345445215466,1.0,0.9720131381630658
14803.822240199797,14803.822240199797,14803.822240199797,14803.822240199797,0.4069984861801842,0.15898333298427367,0.28403759205317525,0.22384848614777528,1.0,0.9769124963400093
14803.827240199797,14803.827240199797,14803.827240199797,14803.827240199797,0.14178082286443897,0.1594801616528525,0.28367602992003904,0.22424706742303227,1.0,0.981733828722688
14803.832240199796,14803.832240199796,14803.832240199796,14803.832240199796,0.1410032442145481,0.15996608339005933,0.283310698304529,0.22463911860979352,1.0,0.9864761716267316
14803.837240199795,14803.837240199795,14803.837240199795,14803.837240199795,0.14021642888582903,0.1604408436236317,0.26371889521751146,0.22502454496436705,1.0,0.9911383790102696
14803.842240199794,14803.842240199794,14803.842240199794,14803.842240199794,0.13942072595147145,0.16090472346410614,0.2633191024285827,0.15706501933939995,1.0,0.16908405296127615
14803.847240199793,14803.847240199793,14803.847240199793,14803.847240199793,0.32479196867661464,0.6912632869518086,0.23856779430530417,0.23038072500545584,1.0,1.0
14803.852240199793,14803.852240199793,14803.852240199793,14803.852240199793,0.13780238015289337,0.16179892503397325,0.23811881029183574,0.23073851422559954,1.0,1.0
14803.857240199792,14803.857240199792,14803.857240199792,14803.857240199792,0.13698009112252638,0.16222939855928015,0.2376656895869537,0.23108952567558777,1.0,1.0
14803.86224019979,14803.86224019979,14803.86224019979,14803.86224019979,0.13614909304959472,0.1626486364913732,0.23720854353880005,0.23143368432307113,1.0,1.0
14803.86724019979,14803.86724019979,14803.86724019979,14803.86724019979,0.1353093699042384,0.16305646517546402,0.2367474765738635,0.2317709056426901,1.0,1.0
14803.87224019979,14803.87224019979,14803.87224019979,14803.87224019979,0.13446125476455897,0.16345317243114085,0.23628260963477818,0.2321011284794105,1.0,1.0
14803.877240199789,14803.877240199789,14803.877240199789,14803.877240199789,0.3343141637702727,0.16383832200620704,0.2154328331962202,0.23242427601399107,0.9869017006620004,1.0
14803.882240199788,14803.882240199788,14803.882240199788,14803.882240199788,0.13273951595972264,0.16421216745751316,0.21491593269108203,0.23274027603255956,0.9800058323079172,1.0
14803.887240199787,14803.887240199787,14803.887240199787,14803.887240199787,0.1318663184466226,0.16457472514424382,0.1985829114158649,0.2330490769548574,0.7621101958773958,1.0
14803.892240199786,14803.892240199786,14803.892240199786,14803.892240199786,0.13098486082672317,0.16492572371803887,0.19801625385192226,0.23335059485813026,0.7545505283515351,1.0
14803.897240199785,14803.897240199785,14803.897240199785,14803.897240199785,0.13009533517946817,0.16526527359764143,0.1974453183267669,0.23364477207761553,0.7469337893833881,1.0
14803.902240199785,14803.902240199785,14803.902240199785,14803.902240199785,0.1291977367015467,0.16559320552752946,0.17226410448102167,0.23393154472212976,0.4109961496438738,1.0
14803.907240199784,14803.907240199784,14803.907240199784,14803.907240199784,0.12829222343375218,0.1659095842541959,0.17160198133031418,0.23421084918880905,0.4021628944311531,1.0
14803.912240199783,14803.912240199783,14803.912240199783,14803.912240199783,0.12737888803322647,0.6435112090640405,0.17093480229706476,0.2813131127409231,0.3932621896801241,1.0
14803.917240199782,14803.917240199782,14803.917240199782,14803.917240199782,0.12645790206296306,0.16650768870559088,0.1702627124927198,0.28153337107872445,0.38429597129415904,1.0
14803.922240199781,14803.922240199781,14803.922240199781,14803.922240199781,0.1255291828148814,0.16678921290468415,0.16958583688640422,0.28174733095491733,0.3752659064618663,1.0
14803.92724019978,14803.92724019978,14803.92724019978,14803.92724019978,0.12459299540465518,0.16705919013232792,0.15210672419934035,0.2264079251489121,0.14208048907876486,1.0
14803.93224019978,14803.93224019978,14803.93224019978,14803.93224019978,0.12364927589607265,0.167317348244542,0.15134458534258163,0.2266584682960801,0.13191294392936553,1.0
14803.937240199779,14803.937240199779,14803.937240199779,14803.937240199779,0.1226981345094624,0.16756368201003707,0.15057685393355905,0.2269008855449138,0.12167078963605621,1.0
14803.942240199778,14803.942240199778,14803.942240199778,14803.942240199778,0.1217397801725479,0.16779834939929247,0.14980366767595493,0.22713513280722358,0.1113558632766805,1.0
14803.947240199777,14803.947240199777,14803.947240199777,14803.947240199777,0.12077432842232698,0.16802136400138912,0.14902517287539654,0.22736117533715097,0.10097011668594347,1.0
14803.952240199776,14803.952240199776,14803.952240199776,14803.952240199776,0.11980169439606626,0.16823240202268042,0.14824149456123487,0.22757895145470505,0.09051521785591748,1.0
14803.957240199776,14803.957240199776,14803.957240199776,14803.957240199776,0.11882214216912759,0.30884103474696406,0.12598645580185935,0.2368035387337642,0.0,1.0
14803.962240199775,14803.962240199775,14803.962240199775,14803.962240199775,0.39858223792484104,0.1686191906602796,0.15716420831811845,0.23699702672543796,0.20955139370989587,1.0
14803.967240199774,14803.967240199774,14803.967240199774,14803.967240199774,0.11684246553724469,0.16879477220385805,0.15641947805347223,0.23718245690214634,0.19961609317671256,1.0
14803.972240199773,14803.972240199773,14803.972240199773,14803.972240199773,0.11584257780072219,0.1689585359714446,0.15567099097496684,0.23735979787127906,0.1896306737259695,1.0
14803.977240199772,14803.977240199772,14803.977240199772,14803.977240199772,0.11483602551933801,0.16911025854491785,0.1549188972131207,0.23752900444152827,0.17959713821949516,1.0
14803.982240199772,14803.982240199772,14803.982240199772,14803.982240199772,0.3826844445742461,0.16924987153182217,0.17919144168492818,0.23769003666966046,0.5034123978921007,1.0
14803.98724019977,14803.98724019977,14803.98724019977,14803.98724019977,0.1128036609952946,0.16937811848486525,0.17853902509506392,0.2378428858230872,0.49470863600562065,1.0
14803.99224019977,14803.99224019977,14803.99224019977,14803.99224019977,0.11177803416905538,0.1694942001684188,0.17788477371539754,0.18023065448997125,0.4859803965479116,0.44930099703310994
14803.99724019977,14803.99724019977,14803.99724019977,14803.99724019977,0.11074617699967783,0.16959823070160862,0.17722884186877025,0.1804106722427287,0.4772297383097589,0.4514785338987514
14804.002240199768,14804.002240199768,14804.002240199768,14804.002240199768,0.10970824079138768,0.16969029089985851,0.17657139501517832,0.1805796783675919,0.46845886866055175,0.45352287153641047
14804.007240199768,14804.007240199768,14804.007240199768,14804.007240199768,0.47665817534354227,0.169770482516563,0.2107307111901984,0.18073764957040017,0.9241716123451065,0.4554337281744679
14804.012240199767,14804.012240199767,14804.012240199767,14804.012240199767,0.10761468626182881,0.16983875114674332,0.21018008639753993,0.1808845754070853,0.9168258348793787,0.45721097747903056
14804.017240199766,14804.017240199766,14804.017240199766,14804.017240199766,0.10655918846537651,0.5716677367667435,0.20962924532426516,0.2266928108220564,0.9094771720563285,1.0
14804.022240199765,14804.022240199765,14804.022240199765,14804.022240199765,0.10549797443619839,0.39713120359077964,0.20907833108329515,0.24389944065880007,0.902127533117393,1.0
14804.027240199764,14804.027240199764,14804.027240199764,14804.027240199764,0.10443131042019838,0.16997135435778668,0.2085274916898596,0.24398387203360153,0.8947788927047485,1.0
14804.032240199764,14804.032240199764,14804.032240199764,14804.032240199764,0.10335910969170735,0.16999145976510002,0.20797687615206248,0.2440600633428801,0.8874332387063126,1.0
14804.037240199763,14804.037240199763,14804.037240199763,14804.037240199763,0.10228163975578818,0.16999971486370366,0.20742663290079788,0.23539357343248768,0.8800925513095588,1.0
14804.042240199762,14804.042240199762,14804.042240199762,14804.042240199762,0.10119890766181396,0.1699958918714639,0.1836753840182061,0.23545545258170683,0.5632317939465127,1.0
14804.047240199761,14804.047240199761,14804.047240199761,14804.047240199761,0.1001110946799728,0.16998016144312728,0.18305675633409568,0.23550874487057025,0.5549788032308689,1.0
14804.05224019976,14804.05224019976,14804.05224019976,14804.05224019976,0.17494186338208917,0.1699523542926775,0.18596733069363436,0.23555343321900865,0.593808205443939,1.0
14804.05724019976,14804.05724019976,14804.05724019976,14804.05724019976,0.09792044926324786,0.16991247792387848,0.1853615843075176,0.2355895117876238,0.5857270616007803,1.0
14804.062240199759,14804.062240199759,14804.062240199759,14804.062240199759,0.09681791891584841,0.16986073362542362,0.16059829472475412,0.23561698777405723,0.25536486756281196,1.0
14804.067240199758,14804.067240199758,14804.067240199758,14804.067240199758,0.09571065575709606,0.16979687089076306,0.1599032637228474,0.2356358245771355,0.2460925951554283,1.0
14804.072240199757,14804.072240199757,14804.072240199757,14804.072240199757,0.09459890586844727,0.16972124934979346,0.15920888088771631,0.235646038553652,0.23682896981399199,1.0
14804.077240199756,14804.077240199756,14804.077240199756,14804.077240199756,0.0934826782276844,0.16963361247296263,0.15851533432622564,0.2356476302660366,0.22757650103532742,1.0
14804.082240199756,14804.082240199756,14804.082240199756,14804.082240199756,0.09236208427075034,0.19190128249350555,0.1578228112429762,0.23671029204981675,0.21833768627933203,1.0
14804.087240199755,14804.087240199755,14804.087240199755,14804.087240199755,0.09123722870731443,0.1694222914958381,0.10596280354401882,0.23669469970812965,0.0,1.0
14804.092240199754,14804.092240199754,14804.092240199754,14804.092240199754,0.09010825126010592,0.16929867902372747,0.1049370132521337,0.23667051665327377,0.0,1.0
14804.097240199753,14804.097240199753,14804.097240199753,14804.097240199753,0.08897527880806265,0.16916318264752944,0.10390806260735637,0.19332923930924661,0.0,0.6077445443766646
14804.102240199752,14804.102240199752,14804.102240199752,14804.102240199752,0.08783840952869487,0.16901577212324267,0.10287611821245814,0.17118561831956447,0.0,0.3398901227697257
14804.107240199752,14804.107240199752,14804.107240199752,14804.107240199752,0.08669778459754444,0.16885655124358548,0.101841340584712,0.17111665032713852,0.0,0.33905586979324764
14804.11224019975,14804.11224019975,14804.11224019975,14804.11224019975,0.08555346084306802,0.16868535337250057,0.10080390231143861,0.171035847915762,0.0,0.3380784649156179
14804.11724019975,14804.11724019975,14804.11724019975,14804.11724019975,0.08440557181908061,0.1685022531245078,0.09976396965538151,0.17094320815158795,0.0,0.33695787264833654
14804.12224019975,14804.12224019975,14804.12224019975,14804.12224019975,0.08325423101039163,0.16830726075372343,0.09872171820690767,0.17083874293097304,0.0,0.3356942368925183
14804.127240199748,14804.127240199748,14804.127240199748,14804.127240199748,0.08209958530483996,0.1681005084319917,0.0976773236736621,0.17072246173076933,0.0,0.3342876722823835
14804.132240199748,14804.132240199748,14804.132240199748,14804.132240199748,0.0809416987387074,0.16788182799003695,0.0896523340437589,0.170594374260678,0.0,0.33273829626874984
14804.137240199747,14804.137240199747,14804.137240199747,14804.137240199747,0.07978081637980748,0.1676517384187246,0.08852161468753407,0.17045452174092957,0.0,0.33104660746117204
14804.142240199746,14804.142240199746,14804.142240199746,14804.142240199746,0.07861687134886483,0.16740955665017,0.08738711407714103,0.17030289092909282,0.0,0.3292124456761032
14804.147240199745,14804.147240199745,14804.147240199745,14804.147240199745,0.0774500707300406,0.1671556547844841,0.08624895185534687,0.17013950711530798,0.0,0.327236116828998
14804.152240199744,14804.152240199744,14804.152240199744,14804.152240199744,0.07628053508827629,0.1668900778113808,0.0851072390355917,0.1699643759906162,0.0,0.325117689760022
14804.157240199744,14804.157240199744,14804.157240199744,14804.157240199744,0.07510840133980722,0.1666129496480917,0.08396209524369548,0.16977752689252693,0.0,0.32285751934255497
14804.162240199743,14804.162240199743,14804.162240199743,14804.162240199743,0.3590728078690219,0.1663239099521603,0.12072610057053958,0.16808258368340198,0.0,0.3023550896293517
14804.167240199742,14804.167240199742,14804.167240199742,14804.167240199742,0.07275663795739978,0.16602336509989782,0.11993903613090327,0.1678704716266381,0.0,0.2997893325516442
14804.172240199741,14804.172240199741,14804.172240199741,14804.172240199741,0.07157731150596387,0.16571129275315694,0.11915582570352712,0.16764659885700448,0.0,0.29708131513878755
14804.17724019974,14804.17724019974,14804.17724019974,14804.17724019974,0.07039579560323388,0.1653874795147902,0.1183767134472267,0.1674109744293134,0.0,0.29423114691991026
14804.18224019974,14804.18224019974,14804.18224019974,14804.18224019974,0.0692122438692405,0.1650521391971279,0.11760194755454564,0.16716362253363615,0.0,0.29123912050377515
14804.187240199739,14804.187240199739,14804.187240199739,14804.187240199739,0.06802680215644907,0.16470548250250605,0.11683177785160383,0.16690457382992716,0.0,0.2881056067603666
14804.192240199738,14804.192240199738,14804.192240199738,14804.192240199738,0.06683955033229505,0.16434732041465208,0.11606645722436917,0.16663385789108565,0.0,0.2848309634103942
14804.197240199737,14804.197240199737,14804.197240199737,14804.197240199737,0.0656505906662056,0.1639775602112726,0.11530623882258519,0.166351493920905,0.0,0.2814154227474369
14804.202240199736,14804.202240199736,14804.202240199736,14804.202240199736,0.06446007339705422,0.16359644793682374,0.11455137861015652,0.1660575156818027,0.0,0.27785939316959735
14804.207240199736,14804.207240199736,14804.207240199736,14804.207240199736,0.06326812132561457,0.1632040644528735,0.11380213276028836,0.16575195359886372,0.0,0.27416324270582426
14804.212240199735,14804.212240199735,14804.212240199735,14804.212240199735,0.06207484506456489,0.16280039309982544,0.11305876086346837,0.1654348477825975,0.0,0.2703274565422263
14804.217240199734,14804.217240199734,14804.217240199734,14804.217240199734,0.06088034703570449,0.162385312197825,0.11232151745121181,0.165106198020468,0.0,0.26635203210791736
14804.222240199733,14804.222240199733,14804.222240199733,14804.222240199733,0.05968476312344665,0.6963896881086219,0.11159066689499174,0.23625906649833053,0.0,1.0
14804.227240199732,14804.227240199732,14804.227240199732,14804.227240199732,0.05848821167019002,0.1615215032975743,0.11086647048854331,0.23601399947138726,0.0,1.0
14804.232240199732,14804.232240199732,14804.232240199732,14804.232240199732,0.05729081873630293,0.16107295066896773,0.11014919040088167,0.2357612569567197,0.0,1.0
14804.23724019973,14804.23724019973,14804.23724019973,14804.23724019973,0.23224593608148805,0.16061315191524755,0.12309102556900219,0.2355008803177166,0.0,1.0
14804.24224019973,14804.24224019973,14804.24224019973,14804.24224019973,0.05489395387231781,0.1601424012421693,0.08533114687456328,0.235232940367169,0.0,1.0
14804.24724019973,14804.24724019973,14804.24724019973,14804.24724019973,0.05369473195186927,0.15966069525934115,0.08444379414119621,0.23495749078186295,0.0,1.0
14804.252240199728,14804.252240199728,14804.252240199728,14804.252240199728,0.052495135488588286,0.5566566520162954,0.08356303669644964,0.2699174359040436,0.0,1.0
14804.257240199728,14804.257240199728,14804.257240199728,14804.257240199728,0.05129529068735023,0.15866419927766964,0.08268922860589314,0.2696650775768417,0.0,1.0
14804.262240199727,14804.262240199727,14804.262240199727,14804.262240199727,0.05012564564784673,0.1581496857821481,0.08182388942463593,0.269406428502067,0.0,1.0
14804.267240199726,14804.267240199726,14804.267240199726,14804.267240199726,0.051104667242698305,0.1576242825241306,0.08105030200882776,0.2691415401288294,0.0,1.0
14804.272240199725,14804.272240199725,14804.272240199725,14804.272240199725,0.05230453628826085,0.1570879587644327,0.08037982579574213,0.26887047102508216,0.0,1.0
14804.277240199724,14804.277240199724,14804.277240199724,14804.277240199724,0.053504178052615085,0.15654116618791986,0.07981516120603509,0.2685933007688651,0.0,1.0
14804.282240199724,14804.282240199724,14804.282240199724,14804.282240199724,0.05470347787736987,0.15598388952801898,0.07935865137268124,0.2683100999195437,0.0,1.0
14804.287240199723,14804.287240199723,14804.287240199723,14804.287240199723,0.055902298004852954,0.15541575813268657,0.0790122381775455,0.2680209234746641,0.0,1.0
14804.292240199722,14804.292240199722,14804.292240199722,14804.292240199722,0.057100533479684086,0.15483718244196373,0.07877742579693979,0.2677258429574572,0.0,1.0
14804.297240199721,14804.297240199721,14804.297240199721,14804.297240199721,0.058298046955297396,0.15424795759069448,0.0786552488182972,0.2674249280872826,0.0,1.0
14804.30224019972,14804.30224019972,14804.30224019972,14804.30224019972,0.05949474767568406,0.15364852291483985,0.07864625099082254,0.20659542974883613,0.0,0.7682154885271026
14804.30724019972,14804.30724019972,14804.30724019972,14804.30724019972,0.48920365043346287,0.15303848589498945,0.14466838489534264,0.20619140495350782,0.04284706194241318,0.7633283100517326
14804.312240199719,14804.312240199719,14804.312240199719,14804.312240199719,0.06188515453972414,0.1524183272176028,0.14478661019163722,0.20577979411585634,0.044424282454418554,0.7583493690331135
14804.317240199718,14804.317240199718,14804.317240199718,14804.317240199718,0.06307863333350978,0.15178783403320809,0.13356911577190533,0.20536067975853026,0.0,0.7532796636845144
14804.322240199717,14804.322240199717,14804.322240199717,14804.322240199717,0.06427082817791999,0.15114734264179405,0.13383028716259399,0.20493414661273476,0.0,0.7481202189344225
14804.327240199716,14804.327240199716,14804.327240199716,14804.327240199716,0.06546157771481421,0.16577702670872338,0.1341572831860722,0.2052374472623001,0.0,0.7517890145708807
14804.332240199716,14804.332240199716,14804.332240199716,14804.332240199716,0.06665076768396706,0.556926133762798,0.13454957536461803,0.2052831347148849,0.0,0.7523416606892596
14804.337240199715,14804.337240199715,14804.337240199715,14804.337240199715,0.0678383101891772,0.14916496748920996,0.13500653715084682,0.2048375127032928,0.0,0.746951312551259
14804.342240199714,14804.342240199714,14804.342240199714,14804.342240199714,0.06902407756430283,0.1484843432190487,0.13552674646250576,0.2043848671678854,0.0,0.7414760062255227
14804.347240199713,14804.347240199713,14804.347240199713,14804.347240199713,0.07020791138079197,0.14779371060841798,0.1360600620851558,0.20392528492224551,0.0,0.7359167918294648
14804.352240199712,14804.352240199712,14804.352240199712,14804.352240199712,0.07138974916040663,0.14709342277979587,0.13660119410228427,0.20345887138531893,0.0,0.730274944535324
14804.357240199712,14804.357240199712,14804.357240199712,14804.357240199712,0.07256941500352479,0.14638328129915895,0.13714996413770653,0.2029857023688243,0.0,0.7245513813793908
14804.36224019971,14804.36224019971,14804.36224019971,14804.36224019971,0.0737468616224019,0.23152556690487064,0.13770619351423086,0.2074434019493286,0.0,0.7784727587092243
14804.36724019971,14804.36724019971,14804.36724019971,14804.36724019971,0.07492189980362263,0.1449343509664004,0.13826969928884036,0.20696861906021302,0.0,0.772729673772385
14804.37224019971,14804.37224019971,14804.37224019971,14804.37224019971,0.0760945266524218,0.14419584388308554,0.13884029987849644,0.20648759598606256,0.0,0.7669111060970171
14804.377240199708,14804.377240199708,14804.377240199708,14804.377240199708,0.07726447079363594,0.14344764376427702,0.13941780690021083,0.2060004294319366,0.0,0.7610182254501503
14804.382240199708,14804.382240199708,14804.382240199708,14804.382240199708,0.6880204439136254,0.14269018284735382,0.220911422341617,0.20550721558277701,1.0,0.7550521953073506
14804.387240199707,14804.387240199707,14804.387240199707,14804.387240199707,0.07959610651990429,0.141923435249811,0.18504138606532775,0.2050080690200773,0.5814553595935248,0.7490144016731783
14804.392240199706,14804.392240199706,14804.392240199706,14804.392240199706,0.08075750241689907,0.14114738052618547,0.18549545728195285,0.2045030822461858,0.5875130347207491,0.7429059634776869
14804.397240199705,14804.397240199705,14804.397240199705,14804.397240199705,0.08191587052909569,0.14036235615435874,0.1859550232275887,0.203992373453604,0.5936440139510315,0.7367283104050337
14804.402240199704,14804.402240199704,14804.402240199704,14804.402240199704,0.4363530801819101,0.13956831258629762,0.21499151172876768,0.20347604427890656,0.9810141174402159,0.7304826718750115
14804.407240199704,14804.407240199704,14804.407240199704,14804.407240199704,0.08422288887997341,0.13876519692381462,0.21539932084112828,0.20220870511973282,0.9864546188993557,0.7151526408191837
14804.412240199703,14804.412240199703,14804.412240199703,14804.412240199703,0.37647559491788885,0.13795325347974907,0.23447300316841188,0.15063991596204984,1.0,0.09136449888713434
14804.417240199702,14804.417240199702,14804.417240199702,14804.417240199702,0.08651616824543307,0.4441242758959663,0.2348569296502094,0.18338387562210084,1.0,0.4874430977734945
14804.422240199701,14804.422240199701,14804.422240199701,14804.422240199701,0.08765745808239382,0.13630307814528986,0.23524507767823727,0.18279176375414236,1.0,0.4802807740508962
14804.4272401997,14804.4272401997,14804.4272401997,14804.4272401997,0.0887949760775402,0.135465091611856,0.23563734610965162,0.1821937623266105,1.0,0.4730472088374063
14804.4322401997,14804.4322401997,14804.4322401997,14804.4322401997,0.08992855543444958,0.24173285796776017,0.23603362987386686,0.1883997366120426,1.0,0.548116126134469
14804.437240199699,14804.437240199699,14804.437240199699,14804.437240199699,0.09105814007895953,0.13376329935419476,0.23643382475118999,0.18781239430912228,1.0,0.5410114961867601
14804.442240199698,14804.442240199698,14804.442240199698,14804.442240199698,0.09218366193198295,0.132899883705735,0.23683782474929696,0.18173370254585067,1.0,0.4674822180647834
14804.447240199697,14804.447240199697,14804.447240199697,14804.447240199697,0.09330495952743895,0.1753898180685721,0.23724552262817997,0.18340355783906817,1.0,0.48768117847602194
14804.452240199696,14804.452240199696,14804.452240199696,14804.452240199696,0.09442189737834213,0.13114818575961423,0.2376568068970414,0.18279039322461293,1.0,0.480264195804973
14804.457240199696,14804.457240199696,14804.457240199696,14804.457240199696,0.09553438698839901,0.28764582344146533,0.23807156834686688,0.19312562927488638,1.0,0.6052816297516201
14804.462240199695,14804.462240199695,14804.462240199695,14804.462240199695,0.09664236848098953,0.3888729022571144,0.16636119638919405,0.21325187349030394,0.33224660944635437,0.8487333897845691
14804.467240199694,14804.467240199694,14804.467240199694,14804.467240199694,0.09774568583002786,0.12846004915369286,0.16696471213065475,0.2127177571791809,0.340297994696244,0.8422725938897443
14804.472240199693,14804.472240199693,14804.472240199693,14804.472240199693,0.09884415431862248,0.12754809544118062,0.1675715955562552,0.21218026550711605,0.3483943075603553,0.8357709688390554
14804.477240199692,14804.477240199692,14804.477240199692,14804.477240199692,0.09993778889576153,0.12662846957848237,0.16818167000321796,0.2116395254042398,0.35653319121519106,0.8292300500090646
14804.482240199692,14804.482240199692,14804.482240199692,14804.482240199692,0.25166203420227495,0.12570115575935836,0.14262953649133467,0.21109566641903765,0.015647184890225558,0.8226514044485694
14804.48724019969,14804.48724019969,14804.48724019969,14804.48724019969,0.1021099690182761,0.12476632388075208,0.14335792305392306,0.21054882773833208,0.02536444729675035,0.8160367157939478
14804.49224019969,14804.49224019969,14804.49224019969,14804.49224019969,0.10318828407793536,0.12382397118467421,0.11116931176125079,0.20999913950509247,0.0,0.8093875582850136
14804.49724019969,14804.49724019969,14804.49724019969,14804.49724019969,0.104261337412607,0.12287431421694381,0.11211691251510524,0.18087391017989515,0.0,0.4570819683950305
14804.502240199688,14804.502240199688,14804.502240199688,14804.502240199688,0.10532885835099559,0.12191722740633912,0.1130634698948929,0.18023096698521393,0.0,0.4493047770486965
14804.507240199688,14804.507240199688,14804.507240199688,14804.507240199688,0.1063909504460148,0.12095308491534675,0.1140087875327405,0.17958460420368985,0.0,0.44148622157964945
14804.512240199687,14804.512240199687,14804.512240199687,14804.512240199687,0.256613296009779,0.11998178090776226,0.12887282897333438,0.1717503519284007,0.0,0.34672127266284003
14804.517240199686,14804.517240199686,14804.517240199686,14804.517240199686,0.10849799780381149,0.11900346662138721,0.1297139948632763,0.171070186439342,0.0,0.33849383173284425
14804.522240199685,14804.522240199685,14804.522240199685,14804.522240199685,0.10954281787150251,0.11801828061149545,0.1305549043588272,0.1703867062162853,0.0,0.3302262950046851
14804.527240199684,14804.527240199684,14804.527240199684,14804.527240199684,0.11058166419306255,0.11702627119459044,0.13139535232875685,0.16722732177176866,0.0,0.2920096413953103
14804.532240199684,14804.532240199684,14804.532240199684,14804.532240199684,0.11161448451372191,0.11602759437363289,0.1322351400598353,0.1665274358738359,0.0,0.28354365778454566
14804.537240199683,14804.537240199683,14804.537240199683,14804.537240199683,0.5607108083163057,0.11502232606492428,0.1912210611654388,0.1529281297966261,0.6638971942169628,0.11904326892474487
14804.542240199682,14804.542240199682,14804.542240199682,14804.542240199682,0.1136615229187797,0.11401051419545903,0.19180509347681318,0.12144146464622918,0.6716886548437854,0.0
14804.547240199681,14804.547240199681,14804.547240199681,14804.547240199681,0.2091541941820881,0.11299227901908233,0.19729710463916483,0.12047659011611402,0.7449564996190767,0.0
14804.55224019968,14804.55224019968,14804.55224019968,14804.55224019968,0.11568306025978531,0.11196779289955462,0.19786844802356474,0.11950470970118274,0.7525786797574865,0.0
14804.55724019968,14804.55724019968,14804.55724019968,14804.55724019968,0.11668409197003776,0.8409118515170981,0.19844054198322933,0.23973943967440317,0.7602108731734297,1.0
14804.562240199679,14804.562240199679,14804.562240199679,14804.562240199679,0.11767834764326529,0.10990030734835236,0.19048831875058425,0.23925369380147152,0.6541218212388702,1.0
14804.567240199678,14804.567240199678,14804.567240199678,14804.567240199678,0.11866579377622843,0.2603102643782294,0.1910870086711836,0.24597663483148144,0.6621088261582525,1.0
14804.572240199677,14804.572240199677,14804.572240199677,14804.572240199677,0.11964649747165228,0.10780880612427984,0.19168584006661482,0.2455048931495968,0.670097718465645,1.0
14804.577240199676,14804.577240199676,14804.577240199676,14804.577240199676,0.12062025599067469,0.21199611802350526,0.19228465230435252,0.2492747853686107,0.6780863551940023,1.0
14804.582240199676,14804.582240199676,14804.582240199676,14804.582240199676,0.12158692197811981,0.10569429173980045,0.19288328909334673,0.24881144604109853,0.6860726512950514,1.0
14804.587240199675,14804.587240199675,14804.587240199675,14804.587240199675,0.12254641444585722,0.10462860198256942,0.19348158839089358,0.24834850343057333,0.6940544449888314,1.0
14804.592240199674,14804.592240199674,14804.592240199674,14804.592240199674,0.12349863636790377,0.10355743753117044,0.18512892977529535,0.24788608543259236,0.5826232630742988,1.0
14804.597240199673,14804.597240199673,14804.597240199673,14804.597240199673,0.12444353884498092,0.10248093945094064,0.18575486350779052,0.24742431917411023,0.5909737223498472,1.0
14804.602240199672,14804.602240199672,14804.602240199672,14804.602240199672,0.12538098619330404,0.10139918487611103,0.18637976550251212,0.24696332972166607,0.599310417413924,1.0
14804.607240199672,14804.607240199672,14804.607240199672,14804.607240199672,0.12631085085076024,0.3578753326763596,0.18700347563736588,0.26103565192611894,0.6076312121090451,1.0
14804.61224019967,14804.61224019967,14804.61224019967,14804.61224019967,0.12723315698791038,0.09922035318767859,0.1876258380213005,0.2606021945723091,0.6159340267232414,1.0
14804.61724019967,14804.61724019967,14804.61724019967,14804.61724019967,0.12814767362425333,0.09812348112972019,0.12876346948564932,0.2601699136033612,0.0,1.0
14804.62224019967,14804.62224019967,14804.62224019967,14804.62224019967,0.12905444607896902,0.09702184033000565,0.12966702680429235,0.2597389294156725,0.0,1.0
14804.627240199668,14804.627240199668,14804.627240199668,14804.627240199668,0.1299532043026757,0.0959154329369882,0.12302412461810476,0.2593093589736927,0.0,1.0
14804.632240199668,14804.632240199668,14804.632240199668,14804.632240199668,0.13084408542598663,0.09480450235249156,0.123969897573138,0.2588813199905829,0.0,1.0
14804.637240199667,14804.637240199667,14804.637240199667,14804.637240199667,0.13172685821255023,0.09368907668360998,0.12490830534946083,0.15288016273150395,0.0,0.11846304807963287
14804.642240199666,14804.642240199666,14804.642240199666,14804.642240199666,0.13260137840418496,0.09256923987635408,0.12583925460061812,0.15216120011459103,0.0,0.1097663080116939
14804.647240199665,14804.647240199665,14804.647240199665,14804.647240199665,0.13346773423389166,0.0914451956059645,0.12676266047322782,0.1394294810970207,0.0,0.0
14804.652240199664,14804.652240199664,14804.652240199664,14804.652240199664,0.13432572738745477,0.7963569180579411,0.1276784217587657,0.2415588548165528,0.0,1.0
14804.657240199664,14804.657240199664,14804.657240199664,14804.657240199664,0.13517515713296643,0.08918470727827621,0.12858643665731584,0.23672537403601068,0.0,1.0
14804.662240199663,14804.662240199663,14804.662240199663,14804.662240199663,0.13601620449656524,0.17052946183774312,0.12948662463869395,0.2390778452523517,0.0,1.0
14804.667240199662,14804.667240199662,14804.667240199662,14804.667240199662,0.13684867332723838,0.08690861999164995,0.1303788976078572,0.23863379650158328,0.0,1.0
14804.672240199661,14804.672240199661,14804.672240199661,14804.672240199661,0.13767238286199185,0.08576495539388769,0.13126316193081575,0.23819226819287165,0.0,1.0
14804.67724019966,14804.67724019966,14804.67724019966,14804.67724019966,0.1384873130865407,0.08461771016043541,0.132139326188042,0.23775338062158632,0.0,1.0
14804.68224019966,14804.68224019966,14804.68224019966,14804.68224019966,0.1392934330363163,0.08346701877412033,0.1330073055312925,0.23731725449298166,0.0,1.0
14804.687240199659,14804.687240199659,14804.687240199659,14804.687240199659,0.14009065813059413,0.08231299304557996,0.1338670176536993,0.22076746017689244,0.0,0.9396436851653911
14804.692240199658,14804.692240199658,14804.692240199658,14804.692240199658,0.1408788029372616,0.08115571009604966,0.13471836723509972,0.2203057412951656,0.0,0.9340586255192036
14804.697240199657,14804.697240199657,14804.697240199657,14804.697240199657,0.14165789738314727,0.07999532516655664,0.13556127515895836,0.21984724083742893,0.0,0.9285124966827861
14804.702240199656,14804.702240199656,14804.702240199656,14804.702240199656,0.14242783723554386,0.07883194379231562,0.13639565332388945,0.21939208433794127,0.0,0.9230068171479119
14804.707240199656,14804.707240199656,14804.707240199656,14804.707240199656,0.14318853426470082,0.07766567880140259,0.1372214243856327,0.21894039915444655,0.0,0.9175431274636557
14804.712240199655,14804.712240199655,14804.712240199655,14804.712240199655,0.14393994710893826,0.07649665656840351,0.1380385006641063,0.21849230806117279,0.0,0.912122912735812
14804.717240199654,14804.717240199654,14804.717240199654,14804.717240199654,0.1446818789807662,0.07532495991422794,0.1388467958714675,0.21804793415190665,0.0,0.9067476619356309
14804.722240199653,14804.722240199653,14804.722240199653,14804.722240199653,0.14541436141483702,0.07415073666382763,0.1396462348515353,0.21760740063574496,0.0,0.9014188654291815
14804.727240199652,14804.727240199652,14804.727240199652,14804.727240199652,0.1461373062015163,0.0729740996812408,0.14043673191015354,0.21717082682878996,0.0,0.896137966491959
14804.732240199652,14804.732240199652,14804.732240199652,14804.732240199652,0.14685061195636265,0.07179515994584384,0.14121820702096516,0.0885934860969302,0.0,0.0
14804.73724019965,14804.73724019965,14804.73724019965,14804.73724019965,0.14755421858160758,0.5384070565689458,0.14199058864559594,0.15959110623164352,0.007123106879967758,0.19964019117218776
14804.74224019965,14804.74224019965,14804.74224019965,14804.74224019965,0.14824826249358403,0.06943089590904504,0.14275380372985702,0.1547678687106714,0.017305009769592913,0.14129718137018454
14804.74724019965,14804.74724019965,14804.74724019965,14804.74724019965,0.14893230203263458,0.06824577314267435,0.1435077626094655,0.15418208964704816,0.027363427446670606,0.13421146073084692
14804.752240199648,14804.752240199648,14804.752240199648,14804.752240199648,0.14960647866837223,0.06705883200364024,0.14425239606403567,0.1536015803269255,0.03729743645559908,0.12718948414213346
14804.757240199648,14804.757240199648,14804.757240199648,14804.757240199648,0.15027069330108225,0.06587018499123112,0.14498763001173257,0.15302651977289075,0.0471060484851337,0.1202334171031557
14804.762240199647,14804.762240199647,14804.762240199647,14804.762240199647,0.15092483380613572,0.06467994436413624,0.14571338533982386,0.15245708495359342,0.0567882081078146,0.11334540026811286
14804.767240199646,14804.767240199646,14804.767240199646,14804.767240199646,0.1515690081866041,0.06348825413542868,0.146429595373997,0.151893452300823,0.06634302583470238,0.10652756779721963
14804.772240199645,14804.772240199645,14804.772240199645,14804.772240199645,0.1522029055654574,0.06229519885445731,0.1471361847421912,0.15133579718396944,0.07576949614190337,0.09978204099965768
14804.777240199644,14804.777240199644,14804.777240199644,14804.777240199644,0.15282666161056607,0.06110092390488711,0.1478330854324878,0.15078429274182711,0.08506671169573715,0.09311091420280168
14804.782240199644,14804.782240199644,14804.782240199644,14804.782240199644,0.1534402110388811,0.05990554561151098,0.14852023176992787,0.15023911067765158,0.09423379633944565,0.0865162643694137
14804.787240199643,14804.787240199643,14804.787240199643,14804.787240199643,0.15404327608628895,0.058709162480135385,0.1491975457410436,0.14970042045090057,0.10326970931064107,0.08000014132075169
14804.792240199642,14804.792240199642,14804.792240199642,14804.792240199642,0.15463594566900682,0.05751190992504558,0.14986495792079715,0.1491683896323013,0.11217352442349737,0.07356457203154769
14804.797240199641,14804.797240199641,14804.797240199641,14804.797240199641,0.15521825729205657,0.056313913339493475,0.15052241342508904,0.1486431849046217,0.12094450947999762,0.06721157273556978
14804.80224019964,14804.80224019964,14804.80224019964,14804.80224019964,0.15578985041285487,0.055115273916817,0.15116983248961036,0.14812496927606647,0.12958160036012625,0.06094311521821014
14804.80724019964,14804.80724019964,14804.80724019964,14804.80724019964,0.1563510902743405,0.05391613433532122,0.15180716453059967,0.1476139040465758,0.13808412223583375,0.05476115060129276
14804.812240199639,14804.812240199639,14804.812240199639,14804.812240199639,0.15690156876697725,0.05271659741701601,0.15243433899853184,0.14711014779271803,0.1464511339197292,0.048667597064099295
14804.817240199638,14804.817240199638,14804.817240199638,14804.817240199638,0.15744131651324458,0.05151678873431448,0.1530512912431042,0.06074236078295432,0.1546817729247927,0.0
14804.822240199637,14804.822240199637,14804.822240199637,14804.822240199637,0.15797030475853538,0.05031682971785242,0.15365794680719452,0.0595531717994034,0.16277504593314607,0.0
14804.827240199636,14804.827240199636,14804.827240199636,14804.827240199636,0.15848866534333533,0.050883160575225336,0.1542542666196007,0.058457727686439635,0.1707304317035382,0.0
14804.832240199636,14804.832240199636,14804.832240199636,14804.832240199636,0.15899598709899904,0.05208306099626458,0.15484017683155768,0.05749600698811563,0.17854694503406462,0.0
14804.837240199635,14804.837240199635,14804.837240199635,14804.837240199635,0.6381046304547031,0.05328275661965991,0.21911810798091774,0.05667496360577237,1.0,0.0
14804.842240199634,14804.842240199634,14804.842240199634,14804.842240199634,0.15997814001915836,0.05448212109561409,0.21951916541426028,0.05600090976469678,1.0,0.0
14804.847240199633,14804.847240199633,14804.847240199633,14804.847240199633,0.1604527272130504,0.0556810388884839,0.21991341153596805,0.055479303567927164,1.0,0.0
14804.852240199632,14804.852240199632,14804.852240199632,14804.852240199632,0.1609163091971293,0.056879391283916676,0.2203007704363042,0.0551145530591898,1.0,0.0
14804.857240199632,14804.857240199632,14804.857240199632,14804.857240199632,0.16136874002375712,0.05807705264484716,0.22068115475657005,0.05490983773680127,1.0,0.0
14804.86224019963,14804.86224019963,14804.86224019963,14804.86224019963,0.16181001104730888,0.059273904243331156,0.22105448060751978,0.05486697880655556,1.0,0.0
14804.86724019963,14804.86724019963,14804.86724019963,14804.86724019963,0.1622400918751151,0.06046982690212627,0.22142067581455874,0.054986361956965324,1.0,0.0
14804.87224019963,14804.87224019963,14804.87224019963,14804.87224019963,0.16265897659434386,0.06166470472500256,0.22177966512743366,0.055266918250089746,1.0,0.0
14804.877240199628,14804.877240199628,14804.877240199628,14804.877240199628,0.16306664781576224,0.25362461756800037,0.22213137189196067,0.08292508134104395,1.0,0.0
14804.882240199628,14804.882240199628,14804.882240199628,14804.882240199628,0.3931353529374597,0.06405085542343947,0.23976061893783687,0.08332538797848793,1.0,0.0
14804.887240199627,14804.887240199627,14804.887240199627,14804.887240199627,0.16384801963638018,0.06524188026742492,0.24007329354856177,0.08382999086969609,1.0,0.0
14804.892240199626,14804.892240199626,14804.892240199626,14804.892240199626,0.16422155348956413,0.06643137035740387,0.24037907520636154,0.08443694586485383,1.0,0.0
14804.897240199625,14804.897240199625,14804.897240199625,14804.897240199625,0.16458381871691172,0.06761923966882703,0.24067790483225027,0.08514397632967143,1.0,0.0
14804.902240199624,14804.902240199624,14804.902240199624,14804.902240199624,0.1649344017592477,0.06880531236553351,0.24096970785884633,0.08594850745522928,1.0,0.0
14804.907240199624,14804.907240199624,14804.907240199624,14804.907240199624,0.3662571866186901,0.06998952228218894,0.2547165178434609,0.0867841331046719,1.0,0.0
14804.912240199623,14804.912240199623,14804.912240199623,14804.912240199623,0.16560141503190262,0.07117175628457055,0.2549794325214969,0.08762724525995047,1.0,0.0
14804.917240199622,14804.917240199622,14804.917240199622,14804.917240199622,0.1659175156527391,0.07235184724756327,0.2031906861079632,0.08847749835293753,0.8235816151662844,0.0
14804.922240199621,14804.922240199621,14804.922240199621,14804.922240199621,0.16622203201732924,0.0735297039884916,0.20350369121043876,0.08933455353552422,0.8277573549060837,0.0
14804.92724019962,14804.92724019962,14804.92724019962,14804.92724019962,0.16651502404200574,0.07470522808211932,0.20380784653411624,0.09019807796502778,0.8318150314810231,0.0
14804.93224019962,14804.93224019962,14804.93224019962,14804.93224019962,0.16679619106708787,0.07587824451882372,0.2041030872700797,0.09106774097333849,0.835753780288054,0.0
14804.937240199619,14804.937240199619,14804.937240199619,14804.937240199619,0.16706576943938875,0.19587293286106705,0.20438936872920463,0.1023738848899821,0.8395730051383233,0.0
14804.942240199618,14804.942240199618,14804.942240199618,14804.942240199618,0.16732366116062347,0.07821644002948656,0.2046666424795192,0.10316582909511378,0.8432720599103848,0.0
14804.947240199617,14804.947240199617,14804.947240199617,14804.947240199617,0.16756980347825634,0.07938136195723684,0.2049348592125564,0.10396387994957922,0.8468502867896412,0.0
14804.952240199616,14804.952240199616,14804.952240199616,14804.952240199616,0.16780415062890136,0.08054333566950804,0.20519396839166176,0.10476775101942082,0.8503070115764891,0.0
14804.957240199616,14804.957240199616,14804.957240199616,14804.957240199616,0.5822754048096308,0.08170228429226524,0.24825981224886187,0.08586702040100194,1.0,0.0
14804.962240199615,14804.962240199615,14804.962240199615,14804.962240199615,0.16823767248928212,0.08285805488317413,0.2318236747455909,0.08686673279343123,1.0,0.0
14804.967240199614,14804.967240199614,14804.967240199614,14804.967240199614,0.16843670357427695,0.0840105437101559,0.23202912106201742,0.08786870061807173,1.0,0.0
14804.972240199613,14804.972240199613,14804.972240199613,14804.972240199613,0.1686237851444275,0.08515960093114641,0.23222638074448304,0.08887265026293334,1.0,0.0
14804.977240199612,14804.977240199612,14804.977240199612,14804.977240199612,0.1687990432778744,0.08630515306549186,0.23241540856930482,0.08987831541464492,1.0,0.0
14804.982240199612,14804.982240199612,14804.982240199612,14804.982240199612,0.16896243901482458,0.08744707967909308,0.23259617676903402,0.09088543820487463,1.0,0.0
14804.98724019961,14804.98724019961,14804.98724019961,14804.98724019961,0.169113862119574,0.08858523688456617,0.21795510930755727,0.09189376237253506,1.0,0.0
14804.99224019961,14804.99224019961,14804.99224019961,14804.99224019961,0.16925342573710445,0.08971955142161243,0.21813037503914443,0.09290303951645773,1.0,0.0
14804.99724019961,14804.99724019961,14804.99724019961,14804.99724019961,0.16938106465090755,0.0908498937296697,0.2182966862004241,0.09391302805418614,1.0,0.0
14805.002240199608,14805.002240199608,14805.002240199608,14805.002240199608,0.16949691437507602,0.09197620275646598,0.21845401852450622,0.09492349350851091,1.0,0.0
14805.007240199608,14805.007240199608,14805.007240199608,14805.007240199608,0.16960073879666182,0.09309828917875754,0.21860233426257547,0.09593420084326519,1.0,0.0
14805.012240199607,14805.012240199607,14805.012240199607,14805.012240199607,0.1696924284505548,0.09421600206829955,0.21874160550174643,0.09694492035347008,1.0,0.0
14805.017240199606,14805.017240199606,14805.017240199606,14805.017240199606,0.16977239706102443,0.09532938492368277,0.21887181395813307,0.08699661168681445,1.0,0.0
14805.022240199605,14805.022240199605,14805.022240199605,14805.022240199605,0.16984025274186018,0.09643818451519541,0.21899292782422247,0.08813238588250444,1.0,0.0
14805.027240199604,14805.027240199604,14805.027240199604,14805.027240199604,0.169896139196892,0.09754234576282012,0.2191049260726282,0.08926442028189703,1.0,0.0
14805.032240199604,14805.032240199604,14805.032240199604,14805.032240199604,0.16993999683506264,0.26612996528954425,0.21920778778716493,0.10949546713119376,1.0,0.0
14805.037240199603,14805.037240199603,14805.037240199603,14805.037240199603,0.16997183100515098,0.09973625085614138,0.16931454528364287,0.11042536326426507,0.37164665834813027,0.0
14805.042240199602,14805.042240199602,14805.042240199602,14805.042240199602,0.16999176057110657,0.1008258291739642,0.16942401101437068,0.11135544559043596,0.3731070192123178,0.0
14805.047240199601,14805.047240199601,14805.047240199601,14805.047240199601,0.3501126474502151,0.10191031676680933,0.18599056947275433,0.11228549144127775,0.5941182294426157,0.0
14805.0522401996,14805.0522401996,14805.0522401996,14805.0522401996,0.1699956777435636,0.10298965565181452,0.18606860637609096,0.1132152863331282,0.5951593044789535,0.0
14805.0572401996,14805.0572401996,14805.0572401996,14805.0572401996,0.16997959925558953,0.10406365885713867,0.18613576490216355,0.11414461293709624,0.5960552532157941,0.0
14805.062240199599,14805.062240199599,14805.062240199599,14805.062240199599,0.16995157699895497,0.10513228075474218,0.18619203801754142,0.1150732612602849,0.5968059818215171,0.0
14805.067240199598,14805.067240199598,14805.067240199598,14805.067240199598,0.16991144380407808,0.10619533646059144,0.18623741580181286,0.11600102171029791,0.5974113579498539,0.0
14805.072240199597,14805.072240199597,14805.072240199597,14805.072240199597,0.16985933844740264,0.1072527806601404,0.18627189023149757,0.11692768963588268,0.5978712745611258,0.0
14805.077240199596,14805.077240199596,14805.077240199596,14805.077240199596,0.16979526636524594,0.10830450847505774,0.1862954576848982,0.11785306450796489,0.598185683338978,0.0
14805.082240199596,14805.082240199596,14805.082240199596,14805.082240199596,0.16971915940926413,0.3272470943927961,0.18630810334502468,0.14161138635755194,0.5983543866128497,0.0
14805.087240199595,14805.087240199595,14805.087240199595,14805.087240199595,0.16963117220251175,0.11039035797399623,0.18630983500857368,0.142385764655245,0.598377488396943,0.0
14805.092240199594,14805.092240199594,14805.092240199594,14805.092240199594,0.1695312603714754,0.11142431892218228,0.18630066456947447,0.14316031647790864,0.5982551473658382,0.0008895131289465633
14805.097240199593,14805.097240199593,14805.097240199593,14805.097240199593,0.1694193573632565,0.1124521185852888,0.18628057697831418,0.14393483915674993,0.5979871627482666,0.010258320708301185
14805.102240199592,14805.102240199592,14805.102240199592,14805.102240199592,0.1692953497894299,0.11347358709564408,0.18624957344898885,0.144709134625513,0.5975735507385775,0.01962437990137723
14805.107240199592,14805.107240199592,14805.107240199592,14805.107240199592,0.16915950780653824,0.11448875717552412,0.18620766275958966,0.14548301116619253,0.5970144284435657,0.028985371642316127
14805.11224019959,14805.11224019959,14805.11224019959,14805.11224019959,0.16901190346931966,0.11549756204554988,0.1861548615595774,0.13256117291206815,0.5963100179804245,0.0
14805.11724019959,14805.11724019959,14805.11724019959,14805.11724019959,0.16885235234991325,0.11649979369069517,0.1860911761199168,0.13341296676492576,0.5954604030088664,0.0
14805.12224019959,14805.12224019959,14805.12224019959,14805.12224019959,0.16868081555585127,0.1174953193557353,0.1860166041227276,0.13426271295909836,0.5944655526065046,0.0
14805.127240199588,14805.127240199588,14805.127240199588,14805.127240199588,0.1684973900264835,0.11848408302271163,0.16945636176659967,0.1351102287773804,0.37353860425878055,0.0
14805.132240199588,14805.132240199588,14805.132240199588,14805.132240199588,0.168302135466608,0.11946600942528486,0.16935067446018084,0.13595533295928944,0.3721286506129293,0.0
14805.137240199587,14805.137240199587,14805.137240199587,14805.137240199587,0.16809517370571667,0.12044106187104535,0.16923307491111825,0.1367978538873669,0.3705597780721326,0.0
14805.142240199586,14805.142240199586,14805.142240199586,14805.142240199586,0.16787636035672987,0.6324057246630633,0.1691035688831229,0.20741001804712667,0.36883206352892955,0.7780689392155902
14805.147240199585,14805.147240199585,14805.147240199585,14805.147240199585,0.16764559967908924,0.5271798172796427,0.16896216671571784,0.24430305969762867,0.36694564492087145,1.0
14805.152240199584,14805.152240199584,14805.152240199584,14805.152240199584,0.46824042725385634,0.12332335999269653,0.20111693168362982,0.24477658841821018,0.795916063736656,1.0
14805.157240199584,14805.157240199584,14805.157240199584,14805.157240199584,0.16714910801898053,0.12426966163550753,0.20097834385651187,0.24525016998586177,0.7940671906909074,1.0
14805.162240199583,14805.162240199583,14805.162240199583,14805.162240199583,0.16688324081850392,0.12520848074212915,0.20082986241225445,0.23331159916926683,0.7920863288375231,1.0
14805.167240199582,14805.167240199582,14805.167240199582,14805.167240199582,0.1666056803841669,0.12613977571353516,0.20067150650034277,0.23381002555415634,0.7899737336460327,1.0
14805.172240199581,14805.172240199581,14805.172240199581,14805.172240199581,0.1663164379173056,0.1270634424424094,0.20050329885319745,0.2343079955358181,0.787729708385206,1.0
14805.17724019958,14805.17724019958,14805.17724019958,14805.17724019958,0.16601570866506984,0.12797949951834892,0.2003252765021211,0.23480537973964397,0.7853547470823942,1.0
14805.18224019958,14805.18224019958,14805.18224019958,14805.18224019958,0.16570321954447095,0.12888765300432373,0.2001374690052905,0.23530204442953007,0.7828492440674427,1.0
14805.187240199579,14805.187240199579,14805.187240199579,14805.187240199579,0.16537917001392505,0.1297879238752989,0.19993990265681122,0.23579785615381038,0.7802135501248609,1.0
14805.192240199578,14805.192240199578,14805.192240199578,14805.192240199578,0.16504369020646803,0.13068029064685602,0.19973260733936388,0.2362926833125618,0.7774480639136361,1.0
14805.197240199577,14805.197240199577,14805.197240199577,14805.197240199577,0.16469648164950243,0.1315644312903918,0.19951560796196402,0.236786390107677,0.7745531177400635,1.0
14805.202240199576,14805.202240199576,14805.202240199576,14805.202240199576,0.16433798421377813,0.13244054300533756,0.19928895488802414,0.23727885230312906,0.771529383492561,1.0
14805.207240199576,14805.207240199576,14805.207240199576,14805.207240199576,0.1639680938164651,0.13330844119028082,0.19905268868911366,0.23776994166729368,0.7683774024284858,1.0
14805.212240199575,14805.212240199575,14805.212240199575,14805.212240199575,0.163586698526157,0.13416792971910757,0.19880684173367727,0.23825952611131326,0.7650976063689165,1.0
14805.217240199574,14805.217240199574,14805.217240199574,14805.217240199574,0.1631939416432832,0.1350189986628064,0.19855144803800642,0.23874747500495724,0.7616904491185319,1.0
14805.222240199573,14805.222240199573,14805.222240199573,14805.222240199573,0.16278993295956834,0.13586161636994246,0.19828655561367883,0.18209322601279032,0.7581565711903826,0.4718310980576316
14805.227240199572,14805.227240199572,14805.227240199572,14805.227240199572,0.16237471226672728,0.13669570007323434,0.19801222031198695,0.13021478459343536,0.7544967176856172,0.0
14805.232240199572,14805.232240199572,14805.232240199572,14805.232240199572,0.16194804505287505,0.13752095279829182,0.16475730292381957,0.13110053474483288,0.31084938100247717,0.0
14805.23724019957,14805.23724019957,14805.23724019957,14805.23724019957,0.1615103756316513,0.13833760366258957,0.16440542094788804,0.13197820538591834,0.30615499251169803,0.0
14805.24224019957,14805.24224019957,14805.24224019957,14805.24224019957,0.16106142011618294,0.13914531401893865,0.16404211425282514,0.13284770460801137,0.3013081890816236,0.0
14805.24724019957,14805.24724019957,14805.24724019957,14805.24724019957,0.16060126706185407,0.13994403433574468,0.16366741394940854,0.13370894034314382,0.29630938575504284,0.0
14805.252240199568,14805.252240199568,14805.252240199568,14805.252240199568,0.1601302552544011,0.14073392287631156,0.16328137128675524,0.1345618376170001,0.29115926623638355,0.0
14805.257240199568,14805.257240199568,14805.257240199568,14805.257240199568,0.15964827754426153,0.14151477858909617,0.1628840186198096,0.13540630767895756,0.2858582621666187,0.0
14805.262240199567,14805.262240199567,14805.262240199567,14805.262240199567,0.15915527799809362,0.14228643667369043,0.16247540234891383,0.1362422689348623,0.2804069925636212,0.0
14805.267240199566,14805.267240199566,14805.267240199566,14805.267240199566,0.15865126985546923,0.14304878749591654,0.16205555711069453,0.1370696319240017,0.27480591950784,0.0
14805.272240199565,14805.272240199565,14805.272240199565,14805.272240199565,0.15813643132578475,0.37738819516917466,0.16162452023958324,0.16316285105340333,0.26905554107061075,0.24284485240649237
14805.277240199564,14805.277240199564,14805.277240199564,14805.277240199564,0.15761074930233393,0.14454553062155137,0.16118234741875534,0.16384788415324114,0.2631566001102652,0.2511311730956046
14805.282240199564,14805.282240199564,14805.282240199564,14805.282240199564,0.6179350625362625,0.14527986778236607,0.2194471397579284,0.16452655728164678,1.0,0.25934056208189404
14805.287240199563,14805.287240199563,14805.287240199563,14805.287240199563,0.15652728816812686,0.1460045463103988,0.2191072811601709,0.165198743159932,1.0,0.26747147977256136
14805.292240199562,14805.292240199562,14805.292240199562,14805.292240199562,0.15596963650646595,0.14671976826234248,0.21875984693490175,0.1658643370536187,1.0,0.27552265927484926
14805.297240199561,14805.297240199561,14805.297240199561,14805.297240199561,0.1554012428603571,0.14742518665674995,0.21840490118544426,0.16652321695499656,1.0,0.28349262475494114
14805.30224019956,14805.30224019956,14805.30224019956,14805.30224019956,0.15482229538528455,0.14812084885995047,0.21804251229183585,0.1671752664916734,1.0,0.29137996854514747
14805.30724019956,14805.30724019956,14805.30724019956,14805.30724019956,0.15423290384420077,0.14880673393320065,0.2176727526743239,0.16782037370175498,1.0,0.2991833363281934
14805.312240199559,14805.312240199559,14805.312240199559,14805.312240199559,0.1536330913169488,0.1494827401607815,0.21729570772915535,0.1684584374589495,1.0,0.30690150485678785
14805.317240199558,14805.317240199558,14805.317240199558,14805.317240199558,0.15302294006355827,0.15014882171274074,0.21691144683793925,0.16908934370850917,1.0,0.31453309449801
14805.322240199557,14805.322240199557,14805.322240199557,14805.322240199557,0.1524025076027524,0.15080490938357763,0.21652005617018136,0.1697129931629333,1.0,0.3220769042470161
14805.327240199556,14805.327240199556,14805.327240199556,14805.327240199556,0.151771694918166,0.15145077796678494,0.21612161448757786,0.17032927782932128,0.9960905969055596,0.3295316277964072
14805.332240199556,14805.332240199556,14805.332240199556,14805.332240199556,0.20112419132426157,0.15208669194203606,0.21825244524224036,0.17093809752938452,1.0,0.3368960533661609
14805.337240199555,14805.337240199555,14805.337240199555,14805.337240199555,0.15047998845465768,0.15271240276715933,0.21784494658901582,0.17153934978439428,1.0,0.34416894134959175
14805.342240199554,14805.342240199554,14805.342240199554,14805.342240199554,0.14981887208909347,0.15332767872260528,0.21743073954557005,0.17213292890096787,1.0,0.3513490132548082
14805.347240199553,14805.347240199553,14805.347240199553,14805.347240199553,0.14914775081907272,0.15393259595958297,0.2170099148277809,0.17271874027722334,1.0,0.3584351247553069
14805.352240199552,14805.352240199552,14805.352240199552,14805.352240199552,0.14846687022212146,0.15452728253065903,0.21658256664290715,0.1497424962812156,1.0,0.0805091004109528
14805.357240199552,14805.357240199552,14805.357240199552,14805.357240199552,0.14777610739931,0.15511147972482972,0.21614878562007328,0.1504017959916533,0.9964530816600864,0.08848414399967722
14805.36224019955,14805.36224019955,14805.36224019955,14805.36224019955,0.1470756113492765,0.15568521459094162,0.1555860401720273,0.15105107783867436,0.18849736170978526,0.09633800916810417
14805.36724019955,14805.36724019955,14805.36724019955,14805.36724019955,0.14636535552846264,0.15624832536921687,0.15496658504744915,0.15169028097924225,0.18023333227299582,0.10406995994462484
14805.37224019955,14805.37224019955,14805.37224019955,14805.37224019955,0.14564537229111937,0.15680071021689362,0.15433735910703705,0.15231932613397875,0.17183895229672508,0.111679037347327
14805.377240199548,14805.377240199548,14805.377240199548,14805.377240199548,0.1449158635594377,0.15734245710203193,0.1536984441786062,0.15293816090349177,0.16331531342982167,0.11916460754090143
14805.382240199548,14805.382240199548,14805.382240199548,14805.382240199548,0.14417688946690907,0.15787349881248444,0.15304991428345588,0.15354672593566196,0.15466340317593508,0.1265259525882226
14805.387240199547,14805.387240199547,14805.387240199547,14805.387240199547,0.1434285654197168,0.15839383138976657,0.1523918438075252,0.1541449631206458,0.14588421390330356,0.13376236957902427
14805.392240199546,14805.392240199546,14805.392240199546,14805.392240199546,0.14267083622939414,0.15890325295334135,0.1517243029535206,0.15473280774463724,0.13697868217247716,0.14087307571996413
14805.397240199545,14805.397240199545,14805.397240199545,14805.397240199545,0.14190380578465725,0.5083432066810261,0.15104736335380486,0.1966824877495525,0.12794776361677218,0.6483062222477323
14805.402240199544,14805.402240199544,14805.402240199544,14805.402240199544,0.7294784358570744,0.1598893825367118,0.23371418972687805,0.19713043108425507,1.0,0.65372464965332
14805.407240199544,14805.407240199544,14805.407240199544,14805.407240199544,0.14034231459450316,0.16036592898647573,0.2332673462953061,0.1975706207259158,1.0,0.6590492865733314
14805.412240199543,14805.412240199543,14805.412240199543,14805.412240199543,0.13954793421109715,0.1608314355464508,0.23043995464779085,0.19800296582034432,1.0,0.6642790340142178
14805.417240199542,14805.417240199542,14805.417240199542,14805.417240199542,0.1387447195542984,0.16128600857086542,0.22997921556198583,0.19842739386552727,1.0,0.6694130149746584
14805.422240199541,14805.422240199541,14805.422240199541,14805.422240199541,0.13793261446301963,0.16172943490304176,0.22951398992581276,0.19884383370371272,1.0,0.6744503687138336
14805.42724019954,14805.42724019954,14805.42724019954,14805.42724019954,0.13711166583707746,0.16216162512617208,0.2290443874122557,0.1992522069822159,1.0,0.6793901474593318
14805.43224019954,14805.43224019954,14805.43224019954,14805.43224019954,0.13628195793686698,0.16258253682540594,0.22857051195780392,0.1996524279890579,1.0,0.6842313144189976
14805.437240199539,14805.437240199539,14805.437240199539,14805.437240199539,0.135443656436963,0.16299223435958268,0.22809247975565786,0.20004442777635642,1.0,0.6889730355831112
14805.442240199538,14805.442240199538,14805.442240199538,14805.442240199538,0.13459675362621723,0.16339055597658753,0.22761040175186362,0.20042812880962296,1.0,0.6936143730763551
14805.447240199537,14805.447240199537,14805.447240199537,14805.447240199537,0.13374161816271313,0.16377784412552235,0.22712440463600062,0.20080347982165117,1.0,0.6981547067586035
14805.452240199536,14805.452240199536,14805.452240199536,14805.452240199536,0.13287782595086436,0.1641533714482686,0.22663459922578755,0.2011703983519101,1.0,0.7025930391679763
14805.457240199536,14805.457240199536,14805.457240199536,14805.457240199536,0.5567812323007058,0.16451777149131608,0.26348821109667886,0.20152883092417315,1.0,0.7069287234435218
14805.462240199535,14805.462240199535,14805.462240199535,14805.462240199535,0.13112578491297,0.1648705816301658,0.2630617316101319,0.2018787046344904,1.0,0.7111608777220008
14805.467240199534,14805.467240199534,14805.467240199534,14805.467240199534,0.13023749776187907,0.16521189877772735,0.26263254351951215,0.20221995262489081,1.0,0.7152886932737492
14805.472240199533,14805.472240199533,14805.472240199533,14805.472240199533,0.1293412185708642,0.43099396135828055,0.26220076157873,0.2256645877682682,1.0,0.9988804865509698
14805.477240199532,14805.477240199532,14805.477240199532,14805.477240199532,0.1284369409523444,0.16585993307756805,0.26176649752982173,0.19103154196095892,1.0,0.5799510595378405
14805.482240199532,14805.482240199532,14805.482240199532,14805.482240199532,0.6164319572352555,0.1661667264952019,0.24292446835190443,0.1913660704529845,1.0,0.5839975944647301
14805.48724019953,14805.48724019953,14805.48724019953,14805.48724019953,0.1266050714864382,0.16646171437596605,0.24245226798862263,0.19169113143008798,1.0,0.587929608115506
14805.49224019953,14805.49224019953,14805.49224019953,14805.49224019953,0.12567759713398582,0.16674514695813467,0.24197764211338024,0.19200667815165212,1.0,0.5917465351047239
14805.49724019953,14805.49724019953,14805.49724019953,14805.49724019953,0.12474256137046374,0.30208100558227413,0.2415007088417497,0.20234635971679088,1.0,0.7168177430395344
14805.502240199528,14805.502240199528,14805.502240199528,14805.502240199528,0.12380002577016537,0.16727694197337545,0.24102159112115487,0.20262803881930086,1.0,0.7202249993828725
14805.507240199528,14805.507240199528,14805.507240199528,14805.507240199528,0.12285013429776614,0.16752527946245782,0.2405404156235407,0.2029005730104512,1.0,0.7235216367382853
14805.512240199527,14805.512240199527,14805.512240199527,14805.512240199527,0.12189296879886087,0.1677618829161892,0.2400573093759365,0.20316391912174508,1.0,0.7267071329295328
14805.517240199526,14805.517240199526,14805.517240199526,14805.517240199526,0.12092855741329514,0.16798661745254545,0.2395723951760292,0.20341802459899702,1.0,0.7297808522488884
14805.522240199525,14805.522240199525,14805.522240199525,14805.522240199525,0.11995713877950558,0.16819969633635018,0.2390858043600039,0.20366285678993978,1.0,0.7327423997268863
14805.527240199524,14805.527240199524,14805.527240199524,14805.527240199524,0.11897863604683923,0.5798334633815685,0.23859765361250757,0.24660705216042755,1.0,1.0
14805.532240199524,14805.532240199524,14805.532240199524,14805.532240199524,0.1179932898569412,0.16859016940302884,0.23810808270249645,0.24679405972713386,1.0,1.0
14805.537240199523,14805.537240199523,14805.537240199523,14805.537240199523,0.11700107926539431,0.16876755905251437,0.19538603722488668,0.24697334351576247,0.7194613237126072,1.0
14805.542240199522,14805.542240199522,14805.542240199522,14805.542240199522,0.11600218257238168,0.16893309471832385,0.19478735064995084,0.24714487152297412,0.7114743634270664,1.0
14805.547240199521,14805.547240199521,14805.547240199521,14805.547240199521,0.11499676254593356,0.16908687596078323,0.19418680457622514,0.24730861292701592,0.7034625959325327,1.0
14805.55224019952,14805.55224019952,14805.55224019952,14805.55224019952,0.11398477067504231,0.1692286166758932,0.19358454520390547,0.22658708734459124,0.6954279716571721,1.0
14805.55724019952,14805.55724019952,14805.55724019952,14805.55724019952,0.11296643489474834,0.16935853640781717,0.19298072861695287,0.22674877712936367,0.6873725728865245,1.0
14805.562240199519,14805.562240199519,14805.562240199519,14805.562240199519,0.1119417258830474,0.16947637393007287,0.11948001348899,0.22690182172045026,0.0,1.0
14805.567240199518,14805.567240199518,14805.567240199518,14805.567240199518,0.4741991392920093,0.16958249569289166,0.16531098677047754,0.22704621056260055,0.3182359687082005,1.0
14805.572240199517,14805.572240199517,14805.572240199517,14805.572240199517,0.10987396491834488,0.5294989114680024,0.16460577664870416,0.25949046958716726,0.30882789865724086,1.0
14805.577240199516,14805.577240199516,14805.577240199516,14805.577240199516,0.1088310290547614,0.16975851083638674,0.16389868699249538,0.2518593207244978,0.2993947541056673,1.0
14805.582240199516,14805.582240199516,14805.582240199516,14805.582240199516,0.10778222116560095,0.3295013417233016,0.1631898883173603,0.26166766110067685,0.2899388098674747,1.0
14805.587240199515,14805.587240199515,14805.587240199515,14805.587240199515,0.1067276212426254,0.1698866967642478,0.1624795494869375,0.26176279915374623,0.28046231871937666,1.0
14805.592240199514,14805.592240199514,14805.592240199514,14805.592240199514,0.28606373267574847,0.16993281535563712,0.17488714706444136,0.2618503056027408,0.4459896467726526,1.0
14805.597240199513,14805.597240199513,14805.597240199513,14805.597240199513,0.10460145420980298,0.16996677875805785,0.1742279353960957,0.26193015802717123,0.4371952330756257,1.0
14805.602240199512,14805.602240199512,14805.602240199512,14805.602240199512,0.10353024851035929,0.16998909345249152,0.1735682093534536,0.2620023469588801,0.4283939572118997,1.0
14805.607240199512,14805.607240199512,14805.607240199512,14805.607240199512,0.10245361107931755,0.7809451271608533,0.172908140236054,0.2928301687167195,0.41958810445505834,1.0
14805.61224019951,14805.61224019951,14805.61224019951,14805.61224019951,0.10137169383607782,0.16999730142951247,0.17224789607172747,0.2928810083298093,0.4107799164314648,1.0
14805.61724019951,14805.61724019951,14805.61724019951,14805.61724019951,0.5900144178123587,0.16998341715893797,0.2248801297212828,0.29292495132766716,1.0,1.0
14805.62224019951,14805.62224019951,14805.62224019951,14805.62224019951,0.09919258744080603,0.1699574998370567,0.22437689093033586,0.29296198505787524,1.0,1.0
14805.627240199508,14805.627240199508,14805.627240199508,14805.627240199508,0.09809562591668589,0.16991966496872074,0.22387473106697442,0.2929920984371546,1.0,1.0
14805.632240199508,14805.632240199508,14805.632240199508,14805.632240199508,0.09699385499143477,0.40301882486037316,0.22337379033321303,0.30692993545306035,1.0,1.0
14805.637240199507,14805.637240199507,14805.637240199507,14805.637240199507,0.09588736316420192,0.1698079741214355,0.2228742041947337,0.3069454551154554,1.0,1.0
14805.642240199506,14805.642240199506,14805.642240199506,14805.642240199506,0.09477628468847817,0.16973413208515048,0.22237611276740268,0.3069543566365729,1.0,1.0
14805.647240199505,14805.647240199505,14805.647240199505,14805.647240199505,0.09366071391485681,0.169648275850969,0.18959260173105513,0.30695662840869464,0.6421722359941554,1.0
14805.652240199504,14805.652240199504,14805.652240199504,14805.652240199504,0.09254085368926573,0.1695506667900757,0.18901342471056592,0.2801714072389096,0.6344455488516536,1.0
14805.657240199504,14805.657240199504,14805.657240199504,14805.657240199504,0.09141667820907523,0.16944093473349525,0.18843599903261776,0.2801593918323179,0.626742226026822,1.0
14805.662240199503,14805.662240199503,14805.662240199503,14805.662240199503,0.09028828423402846,0.16931903046161992,0.18786048326704877,0.27110034548906825,0.6190643829687997,1.0
14805.667240199502,14805.667240199502,14805.667240199502,14805.667240199502,0.0891559871966549,0.16918556429142767,0.18728704301321916,0.27107294020888273,0.611414228906203,1.0
14805.672240199501,14805.672240199501,14805.672240199501,14805.672240199501,0.08801974387930823,0.16904009099533437,0.17448818008864586,0.27103805236129136,0.4406671065248401,1.0
14805.6772401995,14805.6772401995,14805.6772401995,14805.6772401995,0.08687970239912628,0.1688827278939828,0.17387937958476393,0.2709956968228873,0.43254521829502074,1.0
14805.6822401995,14805.6822401995,14805.6822401995,14805.6822401995,0.08573593660859123,0.16871336002179366,0.17327304262096974,0.270945865107474,0.42445619567078924,1.0
14805.687240199499,14805.687240199499,14805.687240199499,14805.687240199499,0.08458861910126693,0.16853219140414724,0.17266934601361672,0.19253480156269842,0.4164023975244703,0.5981348394777442
14805.692240199498,14805.692240199498,14805.692240199498,14805.692240199498,0.08343783881690267,0.1683391568868736,0.1720684641137724,0.19244372330837878,0.40838614983949223,0.597033135599091
14805.697240199497,14805.697240199497,14805.697240199497,14805.697240199497,0.08228373172257895,0.16813435029412016,0.09095826679008419,0.1923421729451945,0.0,0.5958047586408974
14805.702240199496,14805.702240199496,14805.702240199496,14805.702240199496,0.0811263694097908,0.16791763259300097,0.08983207221314042,0.19223016209046787,0.0,0.5944498491290121
14805.707240199496,14805.707240199496,14805.707240199496,14805.707240199496,0.07996591979403021,0.16768922021988267,0.08870196435051089,0.19210770831621235,0.0,0.5929686196186226
14805.712240199495,14805.712240199495,14805.712240199495,14805.712240199495,0.07880242697321725,0.1674488531168463,0.08756805577128235,0.16883810491311305,0.0,0.31149405123325175
14805.717240199494,14805.717240199494,14805.717240199494,14805.717240199494,0.07763608297205472,0.1671968545480402,0.08643046527037604,0.16867515577767267,0.0,0.30952298035712583
14805.722240199493,14805.722240199493,14805.722240199493,14805.722240199493,0.07646698769497316,0.16693318967173768,0.08528930959440732,0.16850036072758778,0.0,0.3074086185252439
14805.727240199492,14805.727240199492,14805.727240199492,14805.727240199492,0.07529523776940528,0.16665779751306767,0.08414470601186134,0.1683137377447871,0.0,0.30515118325122403
14805.732240199492,14805.732240199492,14805.732240199492,14805.732240199492,0.0741209480145466,0.5013804844577299,0.08299676579926106,0.20553393737471376,0.0,0.7553754283561304
14805.73724019949,14805.73724019949,14805.73724019949,14805.73724019949,0.07294426457319285,0.16607203697386064,0.08184561182859035,0.20536200989127268,0.0,0.7532957532814483
14805.74224019949,14805.74224019949,14805.74224019949,14805.74224019949,0.07176527751576559,0.16576173100573038,0.08069136710195937,0.20518054535805838,0.0,0.7511007158208208
14805.74724019949,14805.74724019949,14805.74724019949,14805.74724019949,0.07058412215337885,0.16543989466956716,0.07953414197833679,0.20498955806920885,0.0,0.7487904888794861
14805.752240199488,14805.752240199488,14805.752240199488,14805.752240199488,0.0694009026199365,0.1651064862252859,0.07837405733706093,0.20478908389311523,0.0,0.7463655063298975
14805.757240199488,14805.757240199488,14805.757240199488,14805.757240199488,0.06821574210703633,0.16476156394035335,0.07721123242355171,0.2045791563306946,0.0,0.7438261734069878
14805.762240199487,14805.762240199487,14805.762240199487,14805.762240199487,0.06702872995001527,0.5154230849655965,0.07604578818480813,0.23807021783830784,0.0,1.0
14805.767240199486,14805.767240199486,14805.767240199486,14805.767240199486,0.06584006233342417,0.16403724149710203,0.07487784624681607,0.23787391289869356,0.0,1.0
14805.772240199485,14805.772240199485,14805.772240199485,14805.772240199485,0.7849987864453697,0.16365797618035174,0.2090108088579477,0.2376696547245027,0.9012267323397921,1.0
14805.777240199484,14805.777240199484,14805.777240199484,14805.777240199484,0.06345806090809122,0.16326740764741715,0.20860018643617007,0.23745748607394324,0.8957486990709784,1.0
14805.782240199484,14805.782240199484,14805.782240199484,14805.782240199484,0.06226496929153697,0.16286537167918907,0.20819462695494523,0.23723744975201974,0.8903382095000131,1.0
14805.787240199483,14805.787240199483,14805.787240199483,14805.787240199483,0.06107065909117592,0.4563767948086117,0.2077942371914862,0.25988769513235216,0.8849966881207721,1.0
14805.792240199482,14805.792240199482,14805.792240199482,14805.792240199482,0.05987524350566376,0.16202762174142019,0.2073991234383386,0.25967282986196505,0.8797255529612789,1.0
14805.797240199481,14805.797240199481,14805.797240199481,14805.797240199481,0.058678848364765675,0.16159202755424235,0.2070093881195414,0.25945096505585946,0.8745261704405675,1.0
14805.80224019948,14805.80224019948,14805.80224019948,14805.80224019948,0.05748157260588672,0.16114511183468502,0.20662513147245265,0.25922214285590334,0.869399877805591,1.0
14805.80724019948,14805.80724019948,14805.80724019948,14805.80724019948,0.056283551193222765,0.16068710211435902,0.20624645218165305,0.25898641770164627,0.8643479915880032,1.0
14805.812240199479,14805.812240199479,14805.812240199479,14805.812240199479,0.055084909995117774,0.1602181852099758,0.2058734467116415,0.23014545801783376,0.8593717987017824,1.0
14805.817240199478,14805.817240199478,14805.817240199478,14805.817240199478,0.053885750896065364,0.1597380485310788,0.2055062081468596,0.22986507349743318,0.8544725409682237,1.0
14805.822240199477,14805.822240199477,14805.822240199477,14805.822240199477,0.05268620205403448,0.1592467960544595,0.20514482783822047,0.22957703266159926,0.8496514370819597,1.0
14805.827240199476,14805.827240199476,14805.827240199476,14805.827240199476,0.0514863963454924,0.15874516397536526,0.20478939439837515,0.2292814170332727,0.8449096692070045,1.0
14805.832240199476,14805.832240199476,14805.832240199476,14805.832240199476,0.05030183124688651,0.15823230739533636,0.20444023054905014,0.22897827441410243,0.8402515427106748,1.0
14805.837240199475,14805.837240199475,14805.837240199475,14805.837240199475,0.05091355519728121,0.1577086408769927,0.20412492016269002,0.22866766891519627,0.8360450486302844,1.0
14805.842240199474,14805.842240199474,14805.842240199474,14805.842240199474,0.05211345294005188,0.15717418884131037,0.20385268728934752,0.19294837619753186,0.8324132432101642,0.6031375350466498
14805.847240199473,14805.847240199473,14805.847240199473,14805.847240199473,0.05331314078353202,0.3027324080441588,0.2036237441664085,0.20316309770700008,0.8293589578676914,0.7266971969045474
14805.852240199472,14805.852240199472,14805.852240199472,14805.852240199472,0.05451249590124799,0.1560732835780255,0.055985815448107136,0.20278973793652674,0.0,0.722180949746143
14805.857240199472,14805.857240199472,14805.857240199472,14805.857240199472,0.055711402289733584,0.15550692019439424,0.0554681323785929,0.20240815831295575,0.0,0.717565273321035
14805.86224019947,14805.86224019947,14805.86224019947,14805.86224019947,0.05690973948676149,0.1549300197758245,0.05510740161305507,0.20201843705492234,0.0,0.7128511137801403
14805.86724019947,14805.86724019947,14805.86724019947,14805.86724019947,0.058107379793192554,0.15434253409382337,0.05490676961067757,0.17112221903374705,0.0,0.3391232301715897
14805.87224019947,14805.87224019947,14805.87224019947,14805.87224019947,0.05930420363817289,0.15374456028410236,0.05486802197636147,0.17064390209627886,0.0,0.33333739655882855
14805.877240199468,14805.877240199468,14805.877240199468,14805.877240199468,0.5499129224476004,0.15313631850668663,0.14729413863062854,0.17015584948786672,0.0778767280169976,0.32743379799195893
14805.882240199468,14805.882240199468,14805.882240199468,14805.882240199468,0.061694971822794493,0.1525178867970772,0.14740063406367837,0.16965814314449987,0.07929746272188325,0.3214134255878815
14805.887240199467,14805.887240199467,14805.887240199467,14805.887240199467,0.06288864928846952,0.15188902350216796,0.14756741993754893,0.16915083860979774,0.08152252038404341,0.3152769512152154
14805.892240199466,14805.892240199466,14805.892240199466,14805.892240199466,0.0640810309284925,0.15124992817766394,0.14779426706745233,0.16863399218798827,0.08454884349413073,0.3090250559430783
14805.897240199465,14805.897240199465,14805.897240199465,14805.897240199465,0.06527202666758014,0.15060086935510417,0.14808086670881626,0.1681076944331616,0.08837231315130371,0.3026588351349359
14805.902240199464,14805.902240199464,14805.902240199464,14805.902240199464,0.06646147654403908,0.14994162545592454,0.14842682989887698,0.16757201806851693,0.09298774027954715,0.2961791684676253
14805.907240199464,14805.907240199464,14805.907240199464,14805.907240199464,0.06764929755033863,0.14927249130523879,0.14883169180984518,0.1670270093068395,0.09838892370240529,0.28958661494181115
14805.912240199463,14805.912240199463,14805.912240199463,14805.912240199463,0.06883533274379833,0.14859331381423407,0.14929458894222583,0.1664727566327363,0.10456434364231501,0.2828822448880072
14805.917240199462,14805.917240199462,14805.917240199462,14805.917240199462,0.07001949809070211,0.14790435160380716,0.14977744502446333,0.16590933914161343,0.11100603202137391,0.2760670150627555
14805.922240199461,14805.922240199461,14805.922240199461,14805.922240199461,0.07120167476772478,0.14720565857567702,0.1502677599988792,0.1653368382479547,0.11754722801943894,0.26914191027470535
