timestamp,sample_timestamp,left_raw,right_raw
14802.5522402,14802.5522402,0.08307055840479242,0.16827513407229358
14802.5572402,14802.5572402,0.0819153937114702,0.16806649947464514
14802.562240199999,14802.562240199999,0.08075703919698074,0.16784606455099318
14802.567240199998,14802.567240199998,0.07959561842037828,0.16761388272925473
14802.572240199997,14802.572240199997,0.07843122227857535,0.16736987700753755
14802.577240199997,14802.577240199997,0.07726398071274462,0.16711412319884458
14802.582240199996,14802.582240199996,0.07609392723507229,0.16684626957300927
14802.587240199995,14802.587240199995,0.07492137482639852,0.166567213278365
14802.592240199994,14802.592240199994,0.07374637865327617,0.3123735150991761
14802.597240199993,14802.597240199993,0.1381384474441778,0.16597449441314877
14802.602240199993,14802.602240199993,0.07138927956657581,0.16566050212602831
14802.607240199992,14802.607240199992,0.07020743586101535,0.16533487569154057
14802.612240199991,14802.612240199991,0.06902359664086832,0.16499786078925444
14802.61724019999,14802.61724019999,0.0678378275546322,0.164649180623003
14802.62224019999,14802.62224019999,0.06665030131484118,0.16428920612193795
14802.627240199989,14802.627240199989,0.06546108143415529,0.16391760478107417
14802.632240199988,14802.632240199988,0.06427033377187387,0.16353474062210901
14802.637240199987,14802.637240199987,0.06307814983825458,0.1631404461609295
14802.642240199986,14802.642240199986,0.32313068268669043,0.3225772891261144
14802.647240199985,14802.647240199985,0.06069000175785904,0.1623181683840121
14802.652240199985,14802.652240199985,0.05949426418183137,0.16189017573584727
14802.657240199984,14802.657240199984,0.058297561034553816,0.16145079337132728
14802.662240199983,14802.662240199983,0.05710004638511389,0.16100050769597268
14802.667240199982,14802.667240199982,0.05590181157143946,0.16053897084167948
14802.672240199981,14802.672240199981,0.05470298898396744,0.16006641493442247
14802.67724019998,14802.67724019998,0.05350369442507097,0.15958279140162554
14802.68224019998,14802.68224019998,0.05230405360213377,0.1590883271921578
14802.687240199979,14802.687240199979,0.05110418208106847,0.1585830040899693
14802.692240199978,14802.692240199978,0.05009580184534918,0.15806671465289193
14802.697240199977,14802.697240199977,0.05129577363079935,0.28314422747421836
14802.702240199977,14802.702240199977,0.05249561956210986,0.15700174131399475
14802.707240199976,14802.707240199976,0.05369521434397478,0.15645321267062395
14802.712240199975,14802.712240199975,0.05489443993432675,0.15589404384310734
14802.717240199974,14802.717240199974,0.0560931682839267,0.5284986224420469
14802.722240199973,14802.722240199973,0.05729129832964145,0.15474391834744683
14802.727240199973,14802.727240199973,0.05848869751617695,0.15415317202616263
14802.732240199972,14802.732240199972,0.05968524861040716,0.15355201191336176
14802.737240199971,14802.737240199971,0.060880834774911415,0.15294052321498416
14802.74224019997,14802.74224019997,0.062075327037248364,0.15231867888887204
14802.74724019997,14802.74724019997,0.06326860072398503,0.5083962009502175
14802.752240199969,14802.752240199969,0.0644605605547299,0.2355817303494971
14802.757240199968,14802.757240199968,0.3810532065455808,0.15039193112254795
14802.762240199967,14802.762240199967,0.23029553990046167,0.1497295771258408
14802.767240199966,14802.767240199966,0.06802727432637043,0.14905717488231016
14802.772240199965,14802.772240199965,0.06921275522665032,0.14837502363646224
14802.777240199965,14802.777240199965,0.07039626407845172,0.14768277638760344
14802.782240199964,14802.782240199964,0.07157777501105667,0.146980967599157
14802.787240199963,14802.787240199963,0.07275712437543218,0.14626943721455876
14802.792240199962,14802.792240199962,0.0739341657227712,0.14554814607259237
14802.797240199961,14802.797240199961,0.07510886453177222,0.14481750382582884
14802.80224019996,14802.80224019996,0.0762810190661699,0.14407724912376055
14802.80724019996,14802.80724019996,0.07745056361552609,0.14332765044942858
14802.812240199959,14802.812240199959,0.07861734928691907,0.14256867071097215
14802.817240199958,14802.817240199958,0.07978127427560554,0.141800438398584
14802.822240199957,14802.822240199957,0.08094220468433164,0.14102297779817044
14802.827240199957,14802.827240199957,0.0821000557021658,0.1402364611370656
14802.832240199956,14802.832240199956,0.08325473418028967,0.13944102268214753
14802.837240199955,14802.837240199955,0.08440602023550779,0.48820292688853195
14802.842240199954,14802.842240199954,0.085553929120362,0.13782319639524002
14802.847240199953,14802.847240199953,0.08669823236572725,0.1370010259429382
14802.852240199953,14802.852240199953,0.08783891331762213,0.1361702669767674
14802.857240199952,14802.857240199952,0.08897573645232701,0.13533072436331692
14802.862240199951,14802.862240199951,0.090108715557898,0.13448276930271172
14802.86724019995,14802.86724019995,0.09123771170809175,0.13362642107729517
14802.87224019995,14802.87224019995,0.09236250682864929,0.3118125882668619
14802.877240199949,14802.877240199949,0.20742251033905687,0.13188839167307792
14802.882240199948,14802.882240199948,0.2463669913287632,0.13100725875419725
14802.887240199947,14802.887240199947,0.09571118717810802,0.13011796131759856
14802.892240199946,14802.892240199946,0.09681841025964708,0.12922060237761437
14802.897240199945,14802.897240199945,0.6298735051798947,0.1283153309982476
14802.902240199945,14802.902240199945,0.09901869592518651,0.127402200779977
14802.907240199944,14802.907240199944,0.10011147904310028,0.1264812497392638
14802.912240199943,14802.912240199943,0.1011993654489373,0.36832612607187354
14802.917240199942,14802.917240199942,0.10228208902547062,0.1246167806304908
14802.922240199941,14802.922240199941,0.10335956063037954,0.12367323980348353
14802.92724019994,14802.92724019994,0.10443173903539477,0.12272239040984012
14802.93224019994,14802.93224019994,0.10549838631643661,0.12176415250716813
14802.937240199939,14802.937240199939,0.10655958206041516,0.12079886622463004
14802.942240199938,14802.942240199938,0.1076150702236317,0.11982643464954651
14802.947240199937,14802.947240199937,0.1086648194369921,0.11884704760810416
14802.952240199937,14802.952240199937,0.10970868928677449,0.11786076102945964
14802.957240199936,14802.957240199936,0.6176967108316206,0.11686767803060766
14802.962240199935,14802.962240199935,0.11177846815157577,0.11586798838694627
14802.967240199934,14802.967240199934,0.11280406083721498,0.11486158543887519
14802.972240199933,14802.972240199933,0.11382342479711373,0.11384875164319301
14802.977240199933,14802.977240199933,0.11483640046795461,0.11282952775996136
14802.982240199932,14802.982240199932,0.11584293272857611,0.11180405926637427
14802.987240199931,14802.987240199931,0.11684285304845074,0.4458367662338996
14802.99224019993,14802.99224019993,0.11783612780783163,0.10973466494166997
14802.99724019993,14802.99724019993,0.11882252234872973,0.10869088828865683
14803.002240199929,14803.002240199929,0.1198020915918515,0.10764129252410154
14803.007240199928,14803.007240199928,0.12077474986546638,0.106585988173638
14803.012240199927,14803.012240199927,0.12174018871857759,0.1055249118798087
14803.017240199926,14803.017240199926,0.12269852921612966,0.29175976036263435
14803.022240199925,14803.022240199925,0.12364963237750573,0.10338635250598176
14803.027240199925,14803.027240199925,0.12459333659562218,0.10230899777152878
14803.032240199924,14803.032240199924,0.12552954972859462,0.10122639038089278
14803.037240199923,14803.037240199923,0.12645822304318638,0.5283304293906231
14803.042240199922,14803.042240199922,0.12737933960302603,0.09904599377949105
14803.047240199921,14803.047240199921,0.12829267367420108,0.09794838233618097
14803.05224019992,14803.05224019992,0.12919815351548272,0.09684596021122573
14803.05724019992,14803.05724019992,0.13009561394890887,0.09573879675267649
14803.062240199919,14803.062240199919,0.1309852039528548,0.09462713980329496
14803.067240199918,14803.067240199918,0.13186666295391813,0.09351100136681229
14803.072240199917,14803.072240199917,0.13273990946314398,0.09239049832596213
14803.077240199917,14803.077240199917,0.13360491841104585,0.09126577486617894
14803.082240199916,14803.082240199916,0.13446149656643364,0.0901368907223018
14803.087240199915,14803.087240199915,0.13530969604439247,0.08900402567114493
14803.092240199914,14803.092240199914,0.13614933966180084,0.08786724863775877
14803.097240199913,14803.097240199913,0.13698044204256396,0.14579725265870214
14803.102240199913,14803.102240199913,0.1378027508969326,0.08558247082823672
14803.107240199912,14803.107240199912,0.13861632932886905,0.08443468719569107
14803.112240199911,14803.112240199911,0.13942104593373875,0.08328345949354851
14803.11724019991,14803.11724019991,0.1402168136407363,0.08212890045258482
14803.12224019991,14803.12224019991,0.14100345322820304,0.08097109185742013
14803.127240199909,14803.127240199909,0.14178115050807572,0.0798102406622165
14803.132240199908,14803.132240199908,0.142549560634523,0.07864637260031426
14803.137240199907,14803.137240199907,0.1433088309958289,0.5056019772026337
14803.142240199906,14803.142240199906,0.1440587504713347,0.0763102224781359
14803.147240199905,14803.147240199905,0.14479918505709422,0.07513811625850186
14803.152240199905,14803.152240199905,0.1455301883302282,0.07396350921388412
14803.157240199904,14803.157240199904,0.1462515300126443,0.07278647966406178
14803.162240199903,14803.162240199903,0.14696336898236942,0.07160720143010706
14803.167240199902,14803.167240199902,0.1476654411491716,0.070425746638327
14803.172240199901,14803.172240199901,0.14835782782344029,0.06924226628557084
14803.1772401999,14803.1772401999,0.1490403971994348,0.06805686404783214
14803.1822401999,14803.1822401999,0.1497129310738981,0.06686963229969388
14803.187240199899,14803.187240199899,0.1503755409196944,0.06568072271351728
14803.192240199898,14803.192240199898,0.15102806297264584,0.22949766938626157
14803.197240199897,14803.197240199897,0.1516706378153307,0.06329832745351704
14803.202240199897,14803.202240199897,0.15230305443028294,0.062105085688989814
14803.207240199896,14803.207240199896,0.15292506387611812,0.060910612476953174
14803.212240199895,14803.212240199895,0.15353686674138645,0.0597150582711739
14803.217240199894,14803.217240199894,0.1541383028398144,0.05851853149700232
14803.222240199893,14803.222240199893,0.1547293646619018,0.057321155997018335
14803.227240199893,14803.227240199893,0.1553099937261832,0.05612305030554978
14803.232240199892,14803.232240199892,0.15587995934563675,0.27783466604088286
14803.237240199891,14803.237240199891,0.1564393972290978,0.0537251098118357
14803.24224019989,14803.24224019989,0.3448710524322066,0.0525255220676339
14803.24724019989,14803.24724019989,0.15752638022003101,0.051325684799910516
14803.252240199889,14803.252240199889,0.15805368438913542,0.05018800878635243
14803.257240199888,14803.257240199888,0.15857018946354787,0.0510742723610689
14803.262240199887,14803.262240199887,0.15907583331184338,0.052274148431897066
14803.267240199886,14803.267240199886,0.15957052908224773,0.05347379472931005
14803.272240199885,14803.272240199885,0.16005444779368322,0.22623968858126087
14803.277240199885,14803.277240199885,0.16052729024371817,0.055871935512165696
14803.282240199884,14803.282240199884,0.16098904896307203,0.057070182694498865
14803.287240199883,14803.287240199883,0.16143981576370303,0.0582677306019548
14803.292240199882,14803.292240199882,0.16187929454372474,0.05946444159197167
14803.297240199881,14803.297240199881,0.16230759865701966,0.06066020658127981
14803.30224019988,14803.30224019988,0.1627246689885085,0.0618549046425285
14803.30724019988,14803.30724019988,0.1631305018501317,0.06304842058570338
14803.312240199879,14803.312240199879,0.16352506547930643,0.06424063713244736
14803.317240199878,14803.317240199878,0.16390824950713392,0.06543142680841176
14803.322240199877,14803.322240199877,0.1642799654217838,0.06662066253041243
14803.327240199877,14803.327240199877,0.16464039184792215,0.06780825641344124
14803.332240199876,14803.332240199876,0.1649891985937014,0.0689940453720436
14803.337240199875,14803.337240199875,0.3418968184026261,0.07017794465222661
14803.342240199874,14803.342240199874,0.16565244890000916,0.07135983323185865
14803.347240199873,14803.347240199873,0.1659668288021126,0.07253959910151184
14803.352240199873,14803.352240199873,0.1662695396411574,0.0737170981182484
14803.357240199872,14803.357240199872,0.16656055039766232,0.07489221018744317
14803.362240199871,14803.362240199871,0.1668399727717873,0.07606484710202452
14803.36724019987,14803.36724019987,0.1671075935117128,0.07723485049413685
14803.37224019987,14803.37224019987,0.16736368387024508,0.24791417553404158
14803.377240199869,14803.377240199869,0.1676079928522374,0.12161487861748965
14803.382240199868,14803.382240199868,0.16784046128601235,0.08072813811850754
14803.387240199867,14803.387240199867,0.16806115010320757,0.20904220576017069
14803.392240199866,14803.392240199866,0.16827011490042726,0.08304181591964549
14803.397240199865,14803.397240199865,0.16846723194136537,0.0841937620548929
14803.402240199865,14803.402240199865,0.16865251164895195,0.08534229193626794
14803.407240199864,14803.407240199864,0.16882580679213588,0.08648725132923818
14803.412240199863,14803.412240199863,0.1689873329927222,0.08762859643219104
14803.417240199862,14803.417240199862,0.1691369994217167,0.08876619158512945
14803.422240199861,14803.422240199861,0.16927470248045504,0.08989989472633982
14803.42724019986,14803.42724019986,0.169400421636734,0.09102958865228829
14803.43224019986,14803.43224019986,0.1695143464602345,0.09215523005667255
14803.437240199859,14803.437240199859,0.16961617815306576,0.09327660650488158
14803.442240199858,14803.442240199858,0.1697060833698461,0.09439366759485725
14803.447240199857,14803.447240199857,0.16978398923598076,0.09550627823287124
14803.452240199857,14803.452240199857,0.169849945793431,0.09661434900231536
14803.457240199856,14803.457240199856,0.16990395805356773,0.09771777421778916
14803.462240199855,14803.462240199855,0.1699458921539262,0.0988163926559608
14803.467240199854,14803.467240199854,0.1699758820104209,0.09991014948384859
14803.472240199853,14803.472240199853,0.16999393703146104,0.10099894170842111
14803.477240199853,14803.477240199853,0.1699999175083306,0.10208260253417889
14803.482240199852,14803.482240199852,0.16999373460004671,0.10316098245152142
14803.487240199851,14803.487240199851,0.16997592820920657,0.10423421285890752
14803.49224019985,14803.49224019985,0.16994583720080372,0.10530189114621714
14803.49724019985,14803.49724019985,0.1699038645106794,0.10636409050557691
14803.502240199849,14803.502240199849,0.16984982513489713,0.10742061741124972
14803.507240199848,14803.507240199848,0.1697839158942275,0.10847145741509368
14803.512240199847,14803.512240199847,0.16970606819947923,0.10951647113460695
14803.517240199846,14803.517240199846,0.16961605947397987,0.1105554387222394
14803.522240199845,14803.522240199845,0.16951416895049565,0.111588390076775
14803.527240199845,14803.527240199845,0.20916720456017984,0.11261521440396442
14803.532240199844,14803.532240199844,0.16927454934293462,0.11363571544841655
14803.537240199843,14803.537240199843,0.16913689868416534,0.11464991430608777
14803.542240199842,14803.542240199842,0.16898734434828994,0.11565765441489421
14803.547240199841,14803.547240199841,0.16882574723425828,0.1166587490954469
14803.55224019984,14803.55224019984,0.16865242452736084,0.11765326581889361
14803.55724019984,14803.55724019984,0.16846710118479005,0.1186409400614158
14803.562240199839,14803.562240199839,0.16826997782109826,0.11962177652051979
14803.567240199838,14803.567240199838,0.16806107015561028,0.12059567588085576
14803.572240199837,14803.572240199837,0.16784041634873098,0.12156255256285156
14803.577240199837,14803.577240199837,0.16760785008790843,0.12252219527267458
14803.582240199836,14803.582240199836,0.16736353443445637,0.12347459220472222
14803.587240199835,14803.587240199835,0.16710750851955816,0.12441965758874149
14803.592240199834,14803.592240199834,0.16683981256071917,0.12535730691810706
14803.597240199833,14803.597240199833,0.16656036943722016,0.1262873799741358
14803.602240199833,14803.602240199833,0.16626925365709,0.4978731881570875
14803.607240199832,14803.607240199832,0.16596659140222952,0.1281245776816991
14803.612240199831,14803.612240199831,0.1656523905280501,0.12903157033850934
14803.61724019983,14803.61724019983,0.16532655502078522,0.12993061366030398
14803.62224019983,14803.62224019983,0.1649891348581967,0.13082162781833842
14803.627240199829,14803.627240199829,0.36297801377506533,0.13170453585517417
14803.632240199828,14803.632240199828,0.16427991105593934,0.13257937605878975
14803.637240199827,14803.637240199827,0.163908054172818,0.4894168821496468
14803.642240199826,14803.642240199826,0.250118464407359,0.13430400839334258
14803.647240199825,14803.647240199825,0.16313039868476548,0.13515380368764648
14803.652240199825,14803.652240199825,0.16272463503521076,0.13599509363929838
14803.657240199824,14803.657240199824,0.16230740805042718,0.1368276380099075
14803.662240199823,14803.662240199823,0.16187910004641173,0.13765161457719846
14803.667240199822,14803.667240199822,0.16143959199550026,0.1384668169895771
14803.672240199821,14803.672240199821,0.160988880099155,0.13927312481926651
14803.67724019982,14803.67724019982,0.16052705897304897,0.1400704961723593
14803.68224019982,14803.68224019982,0.16005428215716214,0.14085893940666416
14803.687240199819,14803.687240199819,0.15957046080624712,0.14163826508058727
14803.692240199818,14803.692240199818,0.15907562239128314,0.14240837619794092
14803.697240199817,14803.697240199817,0.4638547761448576,0.7284058310547404
14803.702240199817,14803.702240199817,0.1580534897066494,0.14392098406762893
14803.707240199816,14803.707240199816,0.15752609040621618,0.14466315206470154
14803.712240199815,14803.712240199815,0.15698794947193645,0.2434691734262105
14803.717240199814,14803.717240199814,0.15643917178796227,0.14611908866358633
14803.722240199813,14803.722240199813,0.15587980804801008,0.14683275635161486
14803.727240199813,14803.727240199813,0.15530967652919053,0.14753657636016576
14803.732240199812,14803.732240199812,0.3142354273516337,0.6063729068057528
14803.737240199811,14803.737240199811,0.1541380978576522,0.14891508733080283
14803.74224019981,14803.74224019981,0.15353662682420635,0.14958951018226715
14803.74724019981,14803.74724019981,0.15292488908890875,0.15025405820127455
14803.752240199809,14803.752240199809,0.1523027436304041,0.15090846909261632
14803.757240199808,14803.757240199808,0.4371926168113724,0.1515528576982085
14803.762240199807,14803.762240199807,0.1510279268216349,0.6643465500884386
14803.767240199806,14803.767240199806,0.5515863835360466,0.1528109990287493
14803.772240199805,14803.772240199805,0.1497126935639773,0.15342475763117713
14803.777240199805,14803.777240199805,0.14904009625348472,0.15402813664396126
14803.782240199804,14803.782240199804,0.14835755997899805,0.15462107603550704
14803.787240199803,14803.787240199803,0.14766527351815004,0.15520364501585715
14803.792240199802,14803.792240199802,0.1469631443770751,0.15577561219290867
14803.797240199801,14803.797240199801,0.5123051981459344,0.15633691800216654
14803.8022401998,14803.8022401998,0.14552985607353966,0.15688774275815345
14803.8072401998,14803.8072401998,0.35418595769720945,0.1574276381310441
14803.812240199799,14803.812240199799,0.14405835080075452,0.15795711039963872
14803.817240199798,14803.817240199798,0.14330849661380105,0.15847567725168676
14803.822240199797,14803.822240199797,0.4069984861801842,0.15898333298427367
14803.827240199797,14803.827240199797,0.14178082286443897,0.1594801616528525
14803.832240199796,14803.832240199796,0.1410032442145481,0.15996608339005933
14803.837240199795,14803.837240199795,0.14021642888582903,0.1604408436236317
14803.842240199794,14803.842240199794,0.13942072595147145,0.16090472346410614
14803.847240199793,14803.847240199793,0.32479196867661464,0.6912632869518086
14803.852240199793,14803.852240199793,0.13780238015289337,0.16179892503397325
14803.857240199792,14803.857240199792,0.13698009112252638,0.16222939855928015
14803.86224019979,14803.86224019979,0.13614909304959472,0.1626486364913732
14803.86724019979,14803.86724019979,0.1353093699042384,0.16305646517546402
14803.87224019979,14803.87224019979,0.13446125476455897,0.16345317243114085
14803.877240199789,14803.877240199789,0.3343141637702727,0.16383832200620704
14803.882240199788,14803.882240199788,0.13273951595972264,0.16421216745751316
14803.887240199787,14803.887240199787,0.1318663184466226,0.16457472514424382
14803.892240199786,14803.892240199786,0.13098486082672317,0.16492572371803887
14803.897240199785,14803.897240199785,0.13009533517946817,0.16526527359764143
14803.902240199785,14803.902240199785,0.1291977367015467,0.16559320552752946
14803.907240199784,14803.907240199784,0.12829222343375218,0.1659095842541959
14803.912240199783,14803.912240199783,0.12737888803322647,0.6435112090640405
14803.917240199782,14803.917240199782,0.12645790206296306,0.16650768870559088
14803.922240199781,14803.922240199781,0.1255291828148814,0.16678921290468415
14803.92724019978,14803.92724019978,0.12459299540465518,0.16705919013232792
14803.93224019978,14803.93224019978,0.12364927589607265,0.167317348244542
14803.937240199779,14803.937240199779,0.1226981345094624,0.16756368201003707
14803.942240199778,14803.942240199778,0.1217397801725479,0.16779834939929247
14803.947240199777,14803.947240199777,0.12077432842232698,0.16802136400138912
14803.952240199776,14803.952240199776,0.11980169439606626,0.16823240202268042
14803.957240199776,14803.957240199776,0.11882214216912759,0.30884103474696406
14803.962240199775,14803.962240199775,0.39858223792484104,0.1686191906602796
14803.967240199774,14803.967240199774,0.11684246553724469,0.16879477220385805
14803.972240199773,14803.972240199773,0.11584257780072219,0.1689585359714446
14803.977240199772,14803.977240199772,0.11483602551933801,0.16911025854491785
14803.982240199772,14803.982240199772,0.3826844445742461,0.16924987153182217
14803.98724019977,14803.98724019977,0.1128036609952946,0.16937811848486525
14803.99224019977,14803.99224019977,0.11177803416905538,0.1694942001684188
14803.99724019977,14803.99724019977,0.11074617699967783,0.16959823070160862
14804.002240199768,14804.002240199768,0.10970824079138768,0.16969029089985851
14804.007240199768,14804.007240199768,0.47665817534354227,0.169770482516563
14804.012240199767,14804.012240199767,0.10761468626182881,0.16983875114674332
14804.017240199766,14804.017240199766,0.10655918846537651,0.5716677367667435
14804.022240199765,14804.022240199765,0.10549797443619839,0.39713120359077964
14804.027240199764,14804.027240199764,0.10443131042019838,0.16997135435778668
14804.032240199764,14804.032240199764,0.10335910969170735,0.16999145976510002
14804.037240199763,14804.037240199763,0.10228163975578818,0.16999971486370366
14804.042240199762,14804.042240199762,0.10119890766181396,0.1699958918714639
14804.047240199761,14804.047240199761,0.1001110946799728,0.16998016144312728
14804.05224019976,14804.05224019976,0.17494186338208917,0.1699523542926775
14804.05724019976,14804.05724019976,0.09792044926324786,0.16991247792387848
14804.062240199759,14804.062240199759,0.09681791891584841,0.16986073362542362
14804.067240199758,14804.067240199758,0.09571065575709606,0.16979687089076306
14804.072240199757,14804.072240199757,0.09459890586844727,0.16972124934979346
14804.077240199756,14804.077240199756,0.0934826782276844,0.16963361247296263
14804.082240199756,14804.082240199756,0.09236208427075034,0.19190128249350555
14804.087240199755,14804.087240199755,0.09123722870731443,0.1694222914958381
14804.092240199754,14804.092240199754,0.09010825126010592,0.16929867902372747
14804.097240199753,14804.097240199753,0.08897527880806265,0.16916318264752944
14804.102240199752,14804.102240199752,0.08783840952869487,0.16901577212324267
14804.107240199752,14804.107240199752,0.08669778459754444,0.16885655124358548
14804.11224019975,14804.11224019975,0.08555346084306802,0.16868535337250057
14804.11724019975,14804.11724019975,0.08440557181908061,0.1685022531245078
14804.12224019975,14804.12224019975,0.08325423101039163,0.16830726075372343
14804.127240199748,14804.127240199748,0.08209958530483996,0.1681005084319917
14804.132240199748,14804.132240199748,0.0809416987387074,0.16788182799003695
14804.137240199747,14804.137240199747,0.07978081637980748,0.1676517384187246
14804.142240199746,14804.142240199746,0.07861687134886483,0.16740955665017
14804.147240199745,14804.147240199745,0.0774500707300406,0.1671556547844841
14804.152240199744,14804.152240199744,0.07628053508827629,0.1668900778113808
14804.157240199744,14804.157240199744,0.07510840133980722,0.1666129496480917
14804.162240199743,14804.162240199743,0.3590728078690219,0.1663239099521603
14804.167240199742,14804.167240199742,0.07275663795739978,0.16602336509989782
14804.172240199741,14804.172240199741,0.07157731150596387,0.16571129275315694
14804.17724019974,14804.17724019974,0.07039579560323388,0.1653874795147902
14804.18224019974,14804.18224019974,0.0692122438692405,0.1650521391971279
14804.187240199739,14804.187240199739,0.06802680215644907,0.16470548250250605
14804.192240199738,14804.192240199738,0.06683955033229505,0.16434732041465208
14804.197240199737,14804.197240199737,0.0656505906662056,0.1639775602112726
14804.202240199736,14804.202240199736,0.06446007339705422,0.16359644793682374
14804.207240199736,14804.207240199736,0.06326812132561457,0.1632040644528735
14804.212240199735,14804.212240199735,0.06207484506456489,0.16280039309982544
14804.217240199734,14804.217240199734,0.06088034703570449,0.162385312197825
14804.222240199733,14804.222240199733,0.05968476312344665,0.6963896881086219
14804.227240199732,14804.227240199732,0.05848821167019002,0.1615215032975743
14804.232240199732,14804.232240199732,0.05729081873630293,0.16107295066896773
14804.23724019973,14804.23724019973,0.23224593608148805,0.16061315191524755
14804.24224019973,14804.24224019973,0.05489395387231781,0.1601424012421693
14804.24724019973,14804.24724019973,0.05369473195186927,0.15966069525934115
14804.252240199728,14804.252240199728,0.052495135488588286,0.5566566520162954
14804.257240199728,14804.257240199728,0.05129529068735023,0.15866419927766964
14804.262240199727,14804.262240199727,0.05012564564784673,0.1581496857821481
14804.267240199726,14804.267240199726,0.051104667242698305,0.1576242825241306
14804.272240199725,14804.272240199725,0.05230453628826085,0.1570879587644327
14804.277240199724,14804.277240199724,0.053504178052615085,0.15654116618791986
14804.282240199724,14804.282240199724,0.05470347787736987,0.15598388952801898
14804.287240199723,14804.287240199723,0.055902298004852954,0.15541575813268657
14804.292240199722,14804.292240199722,0.057100533479684086,0.15483718244196373
14804.297240199721,14804.297240199721,0.058298046955297396,0.15424795759069448
14804.30224019972,14804.30224019972,0.05949474767568406,0.15364852291483985
14804.30724019972,14804.30724019972,0.48920365043346287,0.15303848589498945
14804.312240199719,14804.312240199719,0.06188515453972414,0.1524183272176028
14804.317240199718,14804.317240199718,0.06307863333350978,0.15178783403320809
14804.322240199717,14804.322240199717,0.06427082817791999,0.15114734264179405
14804.327240199716,14804.327240199716,0.06546157771481421,0.16577702670872338
14804.332240199716,14804.332240199716,0.06665076768396706,0.556926133762798
14804.337240199715,14804.337240199715,0.0678383101891772,0.14916496748920996
14804.342240199714,14804.342240199714,0.06902407756430283,0.1484843432190487
14804.347240199713,14804.347240199713,0.07020791138079197,0.14779371060841798
14804.352240199712,14804.352240199712,0.07138974916040663,0.14709342277979587
14804.357240199712,14804.357240199712,0.07256941500352479,0.14638328129915895
14804.36224019971,14804.36224019971,0.0737468616224019,0.23152556690487064
14804.36724019971,14804.36724019971,0.07492189980362263,0.1449343509664004
14804.37224019971,14804.37224019971,0.0760945266524218,0.14419584388308554
14804.377240199708,14804.377240199708,0.07726447079363594,0.14344764376427702
14804.382240199708,14804.382240199708,0.6880204439136254,0.14269018284735382
14804.387240199707,14804.387240199707,0.07959610651990429,0.141923435249811
14804.392240199706,14804.392240199706,0.08075750241689907,0.14114738052618547
14804.397240199705,14804.397240199705,0.08191587052909569,0.14036235615435874
14804.402240199704,14804.402240199704,0.4363530801819101,0.13956831258629762
14804.407240199704,14804.407240199704,0.08422288887997341,0.13876519692381462
14804.412240199703,14804.412240199703,0.37647559491788885,0.13795325347974907
14804.417240199702,14804.417240199702,0.08651616824543307,0.4441242758959663
14804.422240199701,14804.422240199701,0.08765745808239382,0.13630307814528986
14804.4272401997,14804.4272401997,0.0887949760775402,0.135465091611856
14804.4322401997,14804.4322401997,0.08992855543444958,0.24173285796776017
14804.437240199699,14804.437240199699,0.09105814007895953,0.13376329935419476
14804.442240199698,14804.442240199698,0.09218366193198295,0.132899883705735
14804.447240199697,14804.447240199697,0.09330495952743895,0.1753898180685721
14804.452240199696,14804.452240199696,0.09442189737834213,0.13114818575961423
14804.457240199696,14804.457240199696,0.09553438698839901,0.28764582344146533
14804.462240199695,14804.462240199695,0.09664236848098953,0.3888729022571144
14804.467240199694,14804.467240199694,0.09774568583002786,0.12846004915369286
14804.472240199693,14804.472240199693,0.09884415431862248,0.12754809544118062
14804.477240199692,14804.477240199692,0.09993778889576153,0.12662846957848237
14804.482240199692,14804.482240199692,0.25166203420227495,0.12570115575935836
14804.48724019969,14804.48724019969,0.1021099690182761,0.12476632388075208
14804.49224019969,14804.49224019969,0.10318828407793536,0.12382397118467421
14804.49724019969,14804.49724019969,0.104261337412607,0.12287431421694381
14804.502240199688,14804.502240199688,0.10532885835099559,0.12191722740633912
14804.507240199688,14804.507240199688,0.1063909504460148,0.12095308491534675
14804.512240199687,14804.512240199687,0.256613296009779,0.11998178090776226
14804.517240199686,14804.517240199686,0.10849799780381149,0.11900346662138721
14804.522240199685,14804.522240199685,0.10954281787150251,0.11801828061149545
14804.527240199684,14804.527240199684,0.11058166419306255,0.11702627119459044
14804.532240199684,14804.532240199684,0.11161448451372191,0.11602759437363289
14804.537240199683,14804.537240199683,0.5607108083163057,0.11502232606492428
14804.542240199682,14804.542240199682,0.1136615229187797,0.11401051419545903
14804.547240199681,14804.547240199681,0.2091541941820881,0.11299227901908233
14804.55224019968,14804.55224019968,0.11568306025978531,0.11196779289955462
14804.55724019968,14804.55724019968,0.11668409197003776,0.8409118515170981
14804.562240199679,14804.562240199679,0.11767834764326529,0.10990030734835236
14804.567240199678,14804.567240199678,0.11866579377622843,0.2603102643782294
14804.572240199677,14804.572240199677,0.11964649747165228,0.10780880612427984
14804.577240199676,14804.577240199676,0.12062025599067469,0.21199611802350526
14804.582240199676,14804.582240199676,0.12158692197811981,0.10569429173980045
14804.587240199675,14804.587240199675,0.12254641444585722,0.10462860198256942
14804.592240199674,14804.592240199674,0.12349863636790377,0.10355743753117044
14804.597240199673,14804.597240199673,0.12444353884498092,0.10248093945094064
14804.602240199672,14804.602240199672,0.12538098619330404,0.10139918487611103
14804.607240199672,14804.607240199672,0.12631085085076024,0.3578753326763596
14804.61224019967,14804.61224019967,0.12723315698791038,0.09922035318767859
14804.61724019967,14804.61724019967,0.12814767362425333,0.09812348112972019
14804.62224019967,14804.62224019967,0.12905444607896902,0.09702184033000565
14804.627240199668,14804.627240199668,0.1299532043026757,0.0959154329369882
14804.632240199668,14804.632240199668,0.13084408542598663,0.09480450235249156
14804.637240199667,14804.637240199667,0.13172685821255023,0.09368907668360998
14804.642240199666,14804.642240199666,0.13260137840418496,0.09256923987635408
14804.647240199665,14804.647240199665,0.13346773423389166,0.0914451956059645
14804.652240199664,14804.652240199664,0.13432572738745477,0.7963569180579411
14804.657240199664,14804.657240199664,0.13517515713296643,0.08918470727827621
14804.662240199663,14804.662240199663,0.13601620449656524,0.17052946183774312
14804.667240199662,14804.667240199662,0.13684867332723838,0.08690861999164995
14804.672240199661,14804.672240199661,0.13767238286199185,0.08576495539388769
14804.67724019966,14804.67724019966,0.1384873130865407,0.08461771016043541
14804.68224019966,14804.68224019966,0.1392934330363163,0.08346701877412033
14804.687240199659,14804.687240199659,0.14009065813059413,0.08231299304557996
14804.692240199658,14804.692240199658,0.1408788029372616,0.08115571009604966
14804.697240199657,14804.697240199657,0.14165789738314727,0.07999532516655664
14804.702240199656,14804.702240199656,0.14242783723554386,0.07883194379231562
14804.707240199656,14804.707240199656,0.14318853426470082,0.07766567880140259
14804.712240199655,14804.712240199655,0.14393994710893826,0.07649665656840351
14804.717240199654,14804.717240199654,0.1446818789807662,0.07532495991422794
14804.722240199653,14804.722240199653,0.14541436141483702,0.07415073666382763
14804.727240199652,14804.727240199652,0.1461373062015163,0.0729740996812408
14804.732240199652,14804.732240199652,0.14685061195636265,0.07179515994584384
14804.73724019965,14804.73724019965,0.14755421858160758,0.5384070565689458
14804.74224019965,14804.74224019965,0.14824826249358403,0.06943089590904504
14804.74724019965,14804.74724019965,0.14893230203263458,0.06824577314267435
14804.752240199648,14804.752240199648,0.14960647866837223,0.06705883200364024
14804.757240199648,14804.757240199648,0.15027069330108225,0.06587018499123112
14804.762240199647,14804.762240199647,0.15092483380613572,0.06467994436413624
14804.767240199646,14804.767240199646,0.1515690081866041,0.06348825413542868
14804.772240199645,14804.772240199645,0.1522029055654574,0.06229519885445731
14804.777240199644,14804.777240199644,0.15282666161056607,0.06110092390488711
14804.782240199644,14804.782240199644,0.1534402110388811,0.05990554561151098
14804.787240199643,14804.787240199643,0.15404327608628895,0.058709162480135385
14804.792240199642,14804.792240199642,0.15463594566900682,0.05751190992504558
14804.797240199641,14804.797240199641,0.15521825729205657,0.056313913339493475
14804.80224019964,14804.80224019964,0.15578985041285487,0.055115273916817
14804.80724019964,14804.80724019964,0.1563510902743405,0.05391613433532122
14804.812240199639,14804.812240199639,0.15690156876697725,0.05271659741701601
14804.817240199638,14804.817240199638,0.15744131651324458,0.05151678873431448
14804.822240199637,14804.822240199637,0.15797030475853538,0.05031682971785242
14804.827240199636,14804.827240199636,0.15848866534333533,0.050883160575225336
14804.832240199636,14804.832240199636,0.15899598709899904,0.05208306099626458
14804.837240199635,14804.837240199635,0.6381046304547031,0.05328275661965991
14804.842240199634,14804.842240199634,0.15997814001915836,0.05448212109561409
14804.847240199633,14804.847240199633,0.1604527272130504,0.0556810388884839
14804.852240199632,14804.852240199632,0.1609163091971293,0.056879391283916676
14804.857240199632,14804.857240199632,0.16136874002375712,0.05807705264484716
14804.86224019963,14804.86224019963,0.16181001104730888,0.059273904243331156
14804.86724019963,14804.86724019963,0.1622400918751151,0.06046982690212627
14804.87224019963,14804.87224019963,0.16265897659434386,0.06166470472500256
14804.877240199628,14804.877240199628,0.16306664781576224,0.25362461756800037
14804.882240199628,14804.882240199628,0.3931353529374597,0.06405085542343947
14804.887240199627,14804.887240199627,0.16384801963638018,0.06524188026742492
14804.892240199626,14804.892240199626,0.16422155348956413,0.06643137035740387
14804.897240199625,14804.897240199625,0.16458381871691172,0.06761923966882703
14804.902240199624,14804.902240199624,0.1649344017592477,0.06880531236553351
14804.907240199624,14804.907240199624,0.3662571866186901,0.06998952228218894
14804.912240199623,14804.912240199623,0.16560141503190262,0.07117175628457055
14804.917240199622,14804.917240199622,0.1659175156527391,0.07235184724756327
14804.922240199621,14804.922240199621,0.16622203201732924,0.0735297039884916
14804.92724019962,14804.92724019962,0.16651502404200574,0.07470522808211932
14804.93224019962,14804.93224019962,0.16679619106708787,0.07587824451882372
14804.937240199619,14804.937240199619,0.16706576943938875,0.19587293286106705
14804.942240199618,14804.942240199618,0.16732366116062347,0.07821644002948656
14804.947240199617,14804.947240199617,0.16756980347825634,0.07938136195723684
14804.952240199616,14804.952240199616,0.16780415062890136,0.08054333566950804
14804.957240199616,14804.957240199616,0.5822754048096308,0.08170228429226524
14804.962240199615,14804.962240199615,0.16823767248928212,0.08285805488317413
14804.967240199614,14804.967240199614,0.16843670357427695,0.0840105437101559
14804.972240199613,14804.972240199613,0.1686237851444275,0.08515960093114641
14804.977240199612,14804.977240199612,0.1687990432778744,0.08630515306549186
14804.982240199612,14804.982240199612,0.16896243901482458,0.08744707967909308
14804.98724019961,14804.98724019961,0.169113862119574,0.08858523688456617
14804.99224019961,14804.99224019961,0.16925342573710445,0.08971955142161243
14804.99724019961,14804.99724019961,0.16938106465090755,0.0908498937296697
14805.002240199608,14805.002240199608,0.16949691437507602,0.09197620275646598
14805.007240199608,14805.007240199608,0.16960073879666182,0.09309828917875754
14805.012240199607,14805.012240199607,0.1696924284505548,0.09421600206829955
14805.017240199606,14805.017240199606,0.16977239706102443,0.09532938492368277
14805.022240199605,14805.022240199605,0.16984025274186018,0.09643818451519541
14805.027240199604,14805.027240199604,0.169896139196892,0.09754234576282012
14805.032240199604,14805.032240199604,0.16993999683506264,0.26612996528954425
14805.037240199603,14805.037240199603,0.16997183100515098,0.09973625085614138
14805.042240199602,14805.042240199602,0.16999176057110657,0.1008258291739642
14805.047240199601,14805.047240199601,0.3501126474502151,0.10191031676680933
14805.0522401996,14805.0522401996,0.1699956777435636,0.10298965565181452
14805.0572401996,14805.0572401996,0.16997959925558953,0.10406365885713867
14805.062240199599,14805.062240199599,0.16995157699895497,0.10513228075474218
14805.067240199598,14805.067240199598,0.16991144380407808,0.10619533646059144
14805.072240199597,14805.072240199597,0.16985933844740264,0.1072527806601404
14805.077240199596,14805.077240199596,0.16979526636524594,0.10830450847505774
14805.082240199596,14805.082240199596,0.16971915940926413,0.3272470943927961
14805.087240199595,14805.087240199595,0.16963117220251175,0.11039035797399623
14805.092240199594,14805.092240199594,0.1695312603714754,0.11142431892218228
14805.097240199593,14805.097240199593,0.1694193573632565,0.1124521185852888
14805.102240199592,14805.102240199592,0.1692953497894299,0.11347358709564408
14805.107240199592,14805.107240199592,0.16915950780653824,0.11448875717552412
14805.11224019959,14805.11224019959,0.16901190346931966,0.11549756204554988
14805.11724019959,14805.11724019959,0.16885235234991325,0.11649979369069517
14805.12224019959,14805.12224019959,0.16868081555585127,0.1174953193557353
14805.127240199588,14805.127240199588,0.1684973900264835,0.11848408302271163
14805.132240199588,14805.132240199588,0.168302135466608,0.11946600942528486
14805.137240199587,14805.137240199587,0.16809517370571667,0.12044106187104535
14805.142240199586,14805.142240199586,0.16787636035672987,0.6324057246630633
14805.147240199585,14805.147240199585,0.16764559967908924,0.5271798172796427
14805.152240199584,14805.152240199584,0.46824042725385634,0.12332335999269653
14805.157240199584,14805.157240199584,0.16714910801898053,0.12426966163550753
14805.162240199583,14805.162240199583,0.16688324081850392,0.12520848074212915
14805.167240199582,14805.167240199582,0.1666056803841669,0.12613977571353516
14805.172240199581,14805.172240199581,0.1663164379173056,0.1270634424424094
14805.17724019958,14805.17724019958,0.16601570866506984,0.12797949951834892
14805.18224019958,14805.18224019958,0.16570321954447095,0.12888765300432373
14805.187240199579,14805.187240199579,0.16537917001392505,0.1297879238752989
14805.192240199578,14805.192240199578,0.16504369020646803,0.13068029064685602
14805.197240199577,14805.197240199577,0.16469648164950243,0.1315644312903918
14805.202240199576,14805.202240199576,0.16433798421377813,0.13244054300533756
14805.207240199576,14805.207240199576,0.1639680938164651,0.13330844119028082
14805.212240199575,14805.212240199575,0.163586698526157,0.13416792971910757
14805.217240199574,14805.217240199574,0.1631939416432832,0.1350189986628064
14805.222240199573,14805.222240199573,0.16278993295956834,0.13586161636994246
14805.227240199572,14805.227240199572,0.16237471226672728,0.13669570007323434
14805.232240199572,14805.232240199572,0.16194804505287505,0.13752095279829182
14805.23724019957,14805.23724019957,0.1615103756316513,0.13833760366258957
14805.24224019957,14805.24224019957,0.16106142011618294,0.13914531401893865
14805.24724019957,14805.24724019957,0.16060126706185407,0.13994403433574468
14805.252240199568,14805.252240199568,0.1601302552544011,0.14073392287631156
14805.257240199568,14805.257240199568,0.15964827754426153,0.14151477858909617
14805.262240199567,14805.262240199567,0.15915527799809362,0.14228643667369043
14805.267240199566,14805.267240199566,0.15865126985546923,0.14304878749591654
14805.272240199565,14805.272240199565,0.15813643132578475,0.37738819516917466
14805.277240199564,14805.277240199564,0.15761074930233393,0.14454553062155137
14805.282240199564,14805.282240199564,0.6179350625362625,0.14527986778236607
14805.287240199563,14805.287240199563,0.15652728816812686,0.1460045463103988
14805.292240199562,14805.292240199562,0.15596963650646595,0.14671976826234248
14805.297240199561,14805.297240199561,0.1554012428603571,0.14742518665674995
14805.30224019956,14805.30224019956,0.15482229538528455,0.14812084885995047
14805.30724019956,14805.30724019956,0.15423290384420077,0.14880673393320065
14805.312240199559,14805.312240199559,0.1536330913169488,0.1494827401607815
14805.317240199558,14805.317240199558,0.15302294006355827,0.15014882171274074
14805.322240199557,14805.322240199557,0.1524025076027524,0.15080490938357763
14805.327240199556,14805.327240199556,0.151771694918166,0.15145077796678494
14805.332240199556,14805.332240199556,0.20112419132426157,0.15208669194203606
14805.337240199555,14805.337240199555,0.15047998845465768,0.15271240276715933
14805.342240199554,14805.342240199554,0.14981887208909347,0.15332767872260528
14805.347240199553,14805.347240199553,0.14914775081907272,0.15393259595958297
14805.352240199552,14805.352240199552,0.14846687022212146,0.15452728253065903
14805.357240199552,14805.357240199552,0.14777610739931,0.15511147972482972
14805.36224019955,14805.36224019955,0.1470756113492765,0.15568521459094162
14805.36724019955,14805.36724019955,0.14636535552846264,0.15624832536921687
14805.37224019955,14805.37224019955,0.14564537229111937,0.15680071021689362
14805.377240199548,14805.377240199548,0.1449158635594377,0.15734245710203193
14805.382240199548,14805.382240199548,0.14417688946690907,0.15787349881248444
14805.387240199547,14805.387240199547,0.1434285654197168,0.15839383138976657
14805.392240199546,14805.392240199546,0.14267083622939414,0.15890325295334135
14805.397240199545,14805.397240199545,0.14190380578465725,0.5083432066810261
14805.402240199544,14805.402240199544,0.7294784358570744,0.1598893825367118
14805.407240199544,14805.407240199544,0.14034231459450316,0.16036592898647573
14805.412240199543,14805.412240199543,0.13954793421109715,0.1608314355464508
14805.417240199542,14805.417240199542,0.1387447195542984,0.16128600857086542
14805.422240199541,14805.422240199541,0.13793261446301963,0.16172943490304176
14805.42724019954,14805.42724019954,0.13711166583707746,0.16216162512617208
14805.43224019954,14805.43224019954,0.13628195793686698,0.16258253682540594
14805.437240199539,14805.437240199539,0.135443656436963,0.16299223435958268
14805.442240199538,14805.442240199538,0.13459675362621723,0.16339055597658753
14805.447240199537,14805.447240199537,0.13374161816271313,0.16377784412552235
14805.452240199536,14805.452240199536,0.13287782595086436,0.1641533714482686
14805.457240199536,14805.457240199536,0.5567812323007058,0.16451777149131608
14805.462240199535,14805.462240199535,0.13112578491297,0.1648705816301658
14805.467240199534,14805.467240199534,0.13023749776187907,0.16521189877772735
14805.472240199533,14805.472240199533,0.1293412185708642,0.43099396135828055
14805.477240199532,14805.477240199532,0.1284369409523444,0.16585993307756805
14805.482240199532,14805.482240199532,0.6164319572352555,0.1661667264952019
14805.48724019953,14805.48724019953,0.1266050714864382,0.16646171437596605
14805.49224019953,14805.49224019953,0.12567759713398582,0.16674514695813467
14805.49724019953,14805.49724019953,0.12474256137046374,0.30208100558227413
14805.502240199528,14805.502240199528,0.12380002577016537,0.16727694197337545
14805.507240199528,14805.507240199528,0.12285013429776614,0.16752527946245782
14805.512240199527,14805.512240199527,0.12189296879886087,0.1677618829161892
14805.517240199526,14805.517240199526,0.12092855741329514,0.16798661745254545
14805.522240199525,14805.522240199525,0.11995713877950558,0.16819969633635018
14805.527240199524,14805.527240199524,0.11897863604683923,0.5798334633815685
14805.532240199524,14805.532240199524,0.1179932898569412,0.16859016940302884
14805.537240199523,14805.537240199523,0.11700107926539431,0.16876755905251437
14805.542240199522,14805.542240199522,0.11600218257238168,0.16893309471832385
14805.547240199521,14805.547240199521,0.11499676254593356,0.16908687596078323
14805.55224019952,14805.55224019952,0.11398477067504231,0.1692286166758932
14805.55724019952,14805.55724019952,0.11296643489474834,0.16935853640781717
14805.562240199519,14805.562240199519,0.1119417258830474,0.16947637393007287
14805.567240199518,14805.567240199518,0.4741991392920093,0.16958249569289166
14805.572240199517,14805.572240199517,0.10987396491834488,0.5294989114680024
14805.577240199516,14805.577240199516,0.1088310290547614,0.16975851083638674
14805.582240199516,14805.582240199516,0.10778222116560095,0.3295013417233016
14805.587240199515,14805.587240199515,0.1067276212426254,0.1698866967642478
14805.592240199514,14805.592240199514,0.28606373267574847,0.16993281535563712
14805.597240199513,14805.597240199513,0.10460145420980298,0.16996677875805785
14805.602240199512,14805.602240199512,0.10353024851035929,0.16998909345249152
14805.607240199512,14805.607240199512,0.10245361107931755,0.7809451271608533
14805.61224019951,14805.61224019951,0.10137169383607782,0.16999730142951247
14805.61724019951,14805.61724019951,0.5900144178123587,0.16998341715893797
14805.62224019951,14805.62224019951,0.09919258744080603,0.1699574998370567
14805.627240199508,14805.627240199508,0.09809562591668589,0.16991966496872074
14805.632240199508,14805.632240199508,0.09699385499143477,0.40301882486037316
14805.637240199507,14805.637240199507,0.09588736316420192,0.1698079741214355
14805.642240199506,14805.642240199506,0.09477628468847817,0.16973413208515048
14805.647240199505,14805.647240199505,0.09366071391485681,0.169648275850969
14805.652240199504,14805.652240199504,0.09254085368926573,0.1695506667900757
14805.657240199504,14805.657240199504,0.09141667820907523,0.16944093473349525
14805.662240199503,14805.662240199503,0.09028828423402846,0.16931903046161992
14805.667240199502,14805.667240199502,0.0891559871966549,0.16918556429142767
14805.672240199501,14805.672240199501,0.08801974387930823,0.16904009099533437
14805.6772401995,14805.6772401995,0.08687970239912628,0.1688827278939828
14805.6822401995,14805.6822401995,0.08573593660859123,0.16871336002179366
14805.687240199499,14805.687240199499,0.08458861910126693,0.16853219140414724
14805.692240199498,14805.692240199498,0.08343783881690267,0.1683391568868736
14805.697240199497,14805.697240199497,0.08228373172257895,0.16813435029412016
14805.702240199496,14805.702240199496,0.0811263694097908,0.16791763259300097
14805.707240199496,14805.707240199496,0.07996591979403021,0.16768922021988267
14805.712240199495,14805.712240199495,0.07880242697321725,0.1674488531168463
14805.717240199494,14805.717240199494,0.07763608297205472,0.1671968545480402
14805.722240199493,14805.722240199493,0.07646698769497316,0.16693318967173768
14805.727240199492,14805.727240199492,0.07529523776940528,0.16665779751306767
14805.732240199492,14805.732240199492,0.0741209480145466,0.5013804844577299
14805.73724019949,14805.73724019949,0.07294426457319285,0.16607203697386064
14805.74224019949,14805.74224019949,0.07176527751576559,0.16576173100573038
14805.74724019949,14805.74724019949,0.07058412215337885,0.16543989466956716
14805.752240199488,14805.752240199488,0.0694009026199365,0.1651064862252859
14805.757240199488,14805.757240199488,0.06821574210703633,0.16476156394035335
14805.762240199487,14805.762240199487,0.06702872995001527,0.5154230849655965
14805.767240199486,14805.767240199486,0.06584006233342417,0.16403724149710203
14805.772240199485,14805.772240199485,0.7849987864453697,0.16365797618035174
14805.777240199484,14805.777240199484,0.06345806090809122,0.16326740764741715
14805.782240199484,14805.782240199484,0.06226496929153697,0.16286537167918907
14805.787240199483,14805.787240199483,0.06107065909117592,0.4563767948086117
14805.792240199482,14805.792240199482,0.05987524350566376,0.16202762174142019
14805.797240199481,14805.797240199481,0.058678848364765675,0.16159202755424235
14805.80224019948,14805.80224019948,0.05748157260588672,0.16114511183468502
14805.80724019948,14805.80724019948,0.056283551193222765,0.16068710211435902
14805.812240199479,14805.812240199479,0.055084909995117774,0.1602181852099758
14805.817240199478,14805.817240199478,0.053885750896065364,0.1597380485310788
14805.822240199477,14805.822240199477,0.05268620205403448,0.1592467960544595
14805.827240199476,14805.827240199476,0.0514863963454924,0.15874516397536526
14805.832240199476,14805.832240199476,0.05030183124688651,0.15823230739533636
14805.837240199475,14805.837240199475,0.05091355519728121,0.1577086408769927
14805.842240199474,14805.842240199474,0.05211345294005188,0.15717418884131037
14805.847240199473,14805.847240199473,0.05331314078353202,0.3027324080441588
14805.852240199472,14805.852240199472,0.05451249590124799,0.1560732835780255
14805.857240199472,14805.857240199472,0.055711402289733584,0.15550692019439424
14805.86224019947,14805.86224019947,0.05690973948676149,0.1549300197758245
14805.86724019947,14805.86724019947,0.058107379793192554,0.15434253409382337
14805.87224019947,14805.87224019947,0.05930420363817289,0.15374456028410236
14805.877240199468,14805.877240199468,0.5499129224476004,0.15313631850668663
14805.882240199468,14805.882240199468,0.061694971822794493,0.1525178867970772
14805.887240199467,14805.887240199467,0.06288864928846952,0.15188902350216796
14805.892240199466,14805.892240199466,0.0640810309284925,0.15124992817766394
14805.897240199465,14805.897240199465,0.06527202666758014,0.15060086935510417
14805.902240199464,14805.902240199464,0.06646147654403908,0.14994162545592454
14805.907240199464,14805.907240199464,0.06764929755033863,0.14927249130523879
14805.912240199463,14805.912240199463,0.06883533274379833,0.14859331381423407
14805.917240199462,14805.917240199462,0.07001949809070211,0.14790435160380716
14805.922240199461,14805.922240199461,0.07120167476772478,0.14720565857567702
14805.92724019946,14805.92724019946,0.07238170167174814,0.14649710930467136
14805.93224019946,14805.93224019946,0.07355951299585295,0.14577900872153574
14805.937240199459,14805.937240199459,0.07473494354382162,0.1450512313079532
14805.942240199458,14805.942240199458,0.07590792530663777,0.14431404537853942
14805.947240199457,14805.947240199457,0.07707832706073663,0.14356746209682708
14805.952240199456,14805.952240199456,0.07824598746043412,0.14281140579052423
14805.957240199456,14805.957240199456,0.07941083156095606,0.1420460987120352
14805.962240199455,14805.962240199455,0.08057274129865274,0.1412716092438401
14805.967240199454,14805.967240199454,0.08173157915771724,0.14048795062538486
14805.972240199453,14805.972240199453,0.08288727409293692,0.1396953292238604
14805.977240199452,14805.977240199452,0.08403967979184522,0.13889373338552585
14805.982240199452,14805.982240199452,0.08518864589414307,0.1380831551621679
14805.98724019945,14805.98724019945,0.08633411347756224,0.1372638222214477
14805.99224019945,14805.99224019945,0.08747596752923276,0.136435808227222
14805.99724019945,14805.99724019945,0.08861405791861919,0.1355991115595966
14806.002240199448,14806.002240199448,0.08974824812402682,0.1347537716577094
14806.007240199448,14806.007240199448,0.09087854048801366,0.13390012040967592
14806.012240199447,14806.012240199447,0.09200465916986096,0.13303790268266977
14806.017240199446,14806.017240199446,0.0931266575276006,0.1321675403293
14806.022240199445,14806.022240199445,0.6026507473403548,0.13128888368255293
14806.027240199444,14806.027240199444,0.09535753066005812,0.13040210797299667
14806.032240199444,14806.032240199444,0.0964662153764448,0.1295072805109855
14806.037240199443,14806.037240199443,0.09757028267487451,0.12860455142386937
14806.042240199442,14806.042240199442,0.09866951966242613,0.1276938421123186
14806.047240199441,14806.047240199441,0.09976393987446047,0.12677544594431073
14806.05224019944,14806.05224019944,0.10085341021497574,0.12584941183964748
14806.05724019944,14806.05724019944,0.10193779540546644,0.12491579026997644
14806.062240199439,14806.062240199439,0.10301689743772634,0.12397454976292882
14806.067240199438,14806.067240199438,0.10409078060061631,0.12302602920164231
14806.072240199437,14806.072240199437,0.10515921947182388,0.1220701584229426
14806.077240199436,14806.077240199436,0.10622217307057065,0.12110712039806304
14806.082240199436,14806.082240199436,0.10727946710569611,0.12013692445758123
14806.087240199435,14806.087240199435,0.10833103042574253,0.11915971317778197
14806.092240199434,14806.092240199434,0.1093767134808838,0.11817553367635844
14806.097240199433,14806.097240199433,0.2605501886698889,0.11718472902908399
14806.102240199432,14806.102240199432,0.11145041586167966,0.11618710888506185
14806.107240199432,14806.107240199432,0.11247802839843409,0.11518283680267238
14806.11224019943,14806.11224019943,0.11349942130828262,0.11417207584662835
14806.11724019943,14806.11724019943,0.24957181919247773,0.11315485394247793
14806.12224019943,14806.12224019943,0.11552301016966049,0.11213135864033978
14806.127240199428,14806.127240199428,0.11652512144207755,0.1111017175074557
14806.132240199428,14806.132240199428,0.11752041528660985,0.11006581438575982
14806.137240199427,14806.137240199427,0.7322795375254748,0.7153838981560418
14806.142240199426,14806.142240199426,0.11949084814608876,0.10797627404330598
14806.147240199425,14806.147240199425,0.12046568624189968,0.10692275026332539
14806.152240199424,14806.152240199424,0.12143346880859456,0.10586352669343191
14806.157240199424,14806.157240199424,0.12239411387146279,0.10479872084967924
14806.162240199423,14806.162240199423,0.19783418755113402,0.1037283992974681
14806.167240199422,14806.167240199422,0.12429348867986827,0.10265270297247532
14806.172240199421,14806.172240199421,0.12523212300267558,0.10157177500906832
14806.17724019942,14806.17724019942,0.12616323651087796,0.1004856913146936
14806.18224019942,14806.18224019942,0.12708679696793157,0.17752610673783054
14806.187240199419,14806.187240199419,0.14797271227151926,0.09829853321314781
14806.192240199418,14806.192240199418,0.12891055281223554,0.09719760971601688
14806.197240199417,14806.197240199417,0.1298106541403424,0.09609198899538023
14806.202240199416,14806.202240199416,0.13070279109603533,0.09498176791671482
14806.207240199416,14806.207240199416,0.25892823659969344,0.09386698710185992
14806.212240199415,14806.212240199415,0.13246262674710452,0.09274786759719189
14806.217240199414,14806.217240199414,0.13333033327826815,0.09162450901490055
14806.222240199413,14806.222240199413,0.13418957000081166,0.09049691924603323
14806.227240199412,14806.227240199412,0.1350405098056353,0.08936533915659434
14806.232240199412,14806.232240199412,0.13588289295707356,0.08822979688075186
14806.23724019941,14806.23724019941,0.13671662236305893,0.08709040351197199
14806.24224019941,14806.24224019941,0.13754176371029742,0.08594733756231308
14806.24724019941,14806.24724019941,0.13835811689699604,0.08480066275960044
14806.252240199408,14806.252240199408,0.1391656508123761,0.08365051469021383
14806.257240199408,14806.257240199408,0.13996429502790708,0.08249701098529422
14806.262240199407,14806.262240199407,0.14075390862171314,0.0813402449771091
14806.267240199406,14806.267240199406,0.14153439589164077,0.08018032806503271
14806.272240199405,14806.272240199405,0.1423058394788618,0.07901742954673863
14806.277240199404,14806.277240199404,0.1430680224277123,0.07785161847425126
14806.282240199404,14806.282240199404,0.14382082953268988,0.07668300190935565
14806.287240199403,14806.287240199403,0.14456431339068135,0.07551173418022375
14806.292240199402,14806.292240199402,0.1452982371827268,0.07433788836842667
14806.297240199401,14806.297240199401,0.14602281545374415,0.07316165580478086
14806.3022401994,14806.3022401994,0.14673769882302254,0.07198308335956886
14806.3072401994,14806.3072401994,0.14744288563758975,0.0708023077136622
14806.312240199399,14806.312240199399,0.14813841962773724,0.08449305357091226
14806.317240199398,14806.317240199398,0.1488239647735193,0.06843463725616854
14806.322240199397,14806.322240199397,0.14949973169665173,0.06724798105598352
14806.327240199396,14806.327240199396,0.15016562074312373,0.0660596116337393
14806.332240199396,14806.332240199396,0.1508213729059929,0.0648696168031387
14806.337240199395,14806.337240199395,0.1514670589030511,0.0636781382655518
14806.342240199394,14806.342240199394,0.15210266629448543,0.06248530102067447
14806.347240199393,14806.347240199393,0.1527279727548764,0.061291204425299506
14806.352240199392,14806.352240199392,0.15334321036624202,0.06009600010226593
14806.357240199392,14806.357240199392,0.15394791711006686,0.058899765647999536
14806.36224019939,14806.36224019939,0.15454226454558043,0.057702645012530245
14806.36724019939,14806.36724019939,0.15512618418600635,0.0565047561897173
14806.37224019939,14806.37224019939,0.1556994996604945,0.05530621192169759
14806.377240199388,14806.377240199388,0.15626236399648732,0.054107143329449374
14806.382240199388,14806.382240199388,0.15681451743950875,0.05290766076683152
14806.387240199387,14806.387240199387,0.15735616550487358,0.05170789138653269
14806.392240199386,14806.392240199386,0.157886835417075,0.05050794705442539
14806.397240199385,14806.397240199385,0.15840685384376774,0.050692046444251106
14806.402240199384,14806.402240199384,0.15891599069692924,0.051891970694064475
14806.407240199384,14806.407240199384,0.15941426976842565,0.05309170624864019
14806.412240199383,14806.412240199383,0.1599015532506329,0.05429113105277675
14806.417240199382,14806.417240199382,0.16037798625763547,0.05549013289698833
14806.422240199381,14806.422240199381,0.16084316707992194,0.05668857499594543
14806.42724019938,14806.42724019938,0.16129741843611162,0.0578863568887085
14806.43224019938,14806.43224019938,0.1617404995018294,0.1543125467946737
14806.437240199379,14806.437240199379,0.16217231323851314,0.06027942194980901
14806.442240199378,14806.442240199378,0.2620300093538157,0.06147448511606073
14806.447240199377,14806.447240199377,0.163002548886163,0.06266839509470833
14806.452240199376,14806.452240199376,0.16340065100047546,0.06386103260771284
14806.457240199376,14806.457240199376,0.1637874423047334,0.06505228726927954
14806.462240199375,14806.462240199375,0.1641628773964585,0.06624203995850043
14806.467240199374,14806.467240199374,0.16452681441893194,0.06743015660834745
14806.472240199373,14806.472240199373,0.164879332722201,0.06861653469248465
14806.477240199372,14806.477240199372,0.16522036615479957,0.06980105127156506
14806.482240199372,14806.482240199372,0.16554993973633547,0.070983598504373
14806.48724019937,14806.48724019937,0.1658679375437763,0.07216404445872944
14806.49224019937,14806.49224019937,0.1661742220054974,0.07334224896472899
14806.49724019937,14806.49724019937,0.16646910846630503,0.07451816345137173
14806.502240199368,14806.502240199368,0.16675223886848767,0.07569160422661494
14806.507240199368,14806.507240199368,0.16702360277147205,0.39095733172995406
14806.512240199367,14806.512240199367,0.1672833557133675,0.07803064002019917
14806.517240199366,14806.517240199366,0.16753149360242514,0.07919605004917056
14806.522240199365,14806.522240199365,0.16776767747836704,0.0803584909486528
14806.527240199364,14806.527240199364,0.47870918698871917,0.08151790586962886
14806.532240199364,14806.532240199364,0.16820490270499266,0.08267420293230103
14806.537240199363,14806.537240199363,0.16840565476289907,0.08382717624423396
14806.542240199362,14806.542240199362,0.1685947856427688,0.08497682906744397
14806.547240199361,14806.547240199361,0.16877189782706453,0.08612293791563018
14806.55224019936,14806.55224019936,0.16893719062760904,0.08726545133856434
14806.55724019936,14806.55724019936,0.1690905462235045,0.08840422442497982
14806.562240199359,14806.562240199359,0.1692321289709346,0.08953920143265635
14806.567240199358,14806.567240199358,0.16936172892495105,0.09067020586961909
14806.572240199357,14806.572240199357,0.16947743048437228,0.09179645780568935
14806.577240199356,14806.577240199356,0.1695850167783049,0.09291986985358418
14806.582240199356,14806.582240199356,0.16967871527495493,0.09403831492140738
14806.587240199355,14806.587240199355,0.1697604941440409,0.09515237395048819
14806.592240199354,14806.592240199354,0.19044067068568213,0.09626191763061832
14806.597240199353,14806.597240199353,0.16988801166723236,0.097366794937715
14806.602240199352,14806.602240199352,0.16993388104807183,0.09846699159796839
14806.607240199352,14806.607240199352,0.1699676871560003,0.09956231371520391
14806.61224019935,14806.61224019935,0.169989466321882,0.10065266682233018
14806.61724019935,14806.61724019935,0.16999936200346086,0.17030932480347433
14806.62224019935,14806.62224019935,0.1699970919808275,0.10281809505587297
14806.627240199348,14806.627240199348,0.16998290979017264,0.10389294243087427
14806.632240199348,14806.632240199348,0.24937668855332373,0.10496242932343687
14806.637240199347,14806.637240199347,0.16991856432386201,0.10602636724882598
14806.642240199346,14806.642240199346,0.16986846230832195,0.1070847578636074
14806.647240199345,14806.647240199345,0.16980628844918608,0.10813739976023438
14806.652240199344,14806.652240199344,0.1697320876447873,0.10918420475769483
14806.657240199344,14806.657240199344,0.4284592023096681,0.11022500691763261
14806.662240199343,14806.662240199343,0.16954796671449535,0.11126004977823875
14806.667240199342,14806.667240199342,0.1694380025714738,0.11228885317273421
14806.672240199341,14806.672240199341,0.1693160452119559,0.1133114025469708
14806.67724019934,14806.67724019934,0.16918205871575862,0.11432756834214462
14806.68224019934,14806.68224019934,0.169036167654635,0.11533730740522649
14806.687240199339,14806.687240199339,0.1688784582314515,0.11634055891094061
14806.692240199338,14806.692240199338,0.1687088637257313,0.11733717810570214
14806.697240199337,14806.697240199337,0.2004167270809423,0.11832711442645964
14806.702240199336,14806.702240199336,0.16833409592398443,0.11931012648149997
14806.707240199336,14806.707240199336,0.16812883466887615,0.12028618402790021
14806.712240199335,14806.712240199335,0.16791191487563967,0.4638641375477599
14806.717240199334,14806.717240199334,0.16768321888706142,0.12221730938354633
14806.722240199333,14806.722240199333,0.44584268415634415,0.123171892589242
14806.727240199332,14806.727240199332,0.16719042454388902,0.12411948622429342
14806.732240199331,14806.732240199331,0.16692632330741658,0.1250594320530316
14806.73724019933,14806.73724019933,0.16665059530886475,0.12599191299549123
14806.74224019933,14806.74224019933,0.16636334066007902,0.12691688551186225
14806.74724019933,14806.74724019933,0.16606441199653788,0.12783414302607224
14806.752240199328,14806.752240199328,0.16575375336898518,0.12874353441963202
14806.757240199327,14806.757240199327,0.16543146741694476,0.12964501456395555
14806.762240199327,14806.762240199327,0.16509783650372814,0.13053866671338585
14806.767240199326,14806.767240199326,0.1647525759300787,0.1314241817192468
14806.772240199325,14806.772240199325,0.16439573739286104,0.13230147953246557
14806.777240199324,14806.777240199324,0.16402770656211935,0.13317072521909823
14806.782240199323,14806.782240199323,0.16364819868672156,0.13403160108483997
14806.787240199323,14806.787240199323,0.16325727787701735,0.13488403849022348
14806.792240199322,14806.792240199322,0.4309669474792613,0.1357280023906547
14806.797240199321,14806.797240199321,0.16244150453254289,0.13656336717736733
14806.80224019932,14806.80224019932,0.1620167749074287,0.1373901228521496
14806.80724019932,14806.80724019932,0.16158061588739286,0.13820796028659454
14806.812240199319,14806.812240199319,0.1611336931918951,0.1390172887235109
14806.817240199318,14806.817240199318,0.1957080688570656,0.13981758333013658
14806.822240199317,14806.822240199317,0.16020616634795048,0.14060885502327022
14806.827240199316,14806.827240199316,0.15972574403259612,0.14139099969399455
14806.832240199315,14806.832240199315,0.15923445348309737,0.1421640913477077
14806.837240199315,14806.837240199315,0.1587322979199488,0.14292801662167173
14806.842240199314,14806.842240199314,0.15821919197318177,0.143682583808059
14806.847240199313,14806.847240199313,0.15769526650188773,0.14442778458883646
14806.852240199312,14806.852240199312,0.1571605994777336,0.14516356738665562
14806.857240199311,14806.857240199311,0.15661491576836056,0.14588956391162458
14806.86224019931,14806.86224019931,0.15605906956457483,0.14660641946262018
14806.86724019931,14806.86724019931,0.15549246197752678,0.147313476059887
14806.872240199309,14806.872240199309,0.15491524496552114,0.14801074651981141
14806.877240199308,14806.877240199308,0.15432756592462435,0.1486982439103191
14806.882240199307,14806.882240199307,0.15372942253118824,0.1626919828620265
14806.887240199307,14806.887240199307,0.15312090089050215,0.15004349738952108
14806.892240199306,14806.892240199306,0.15250207711404037,0.1507011580527107
14806.897240199305,14806.897240199305,0.151872927632074,0.15134867361800383
14806.902240199304,14806.902240199304,0.5221903796267665,0.15198612313799895
14806.907240199303,14806.907240199303,0.1505842315004005,0.15261333410695788
14806.912240199303,14806.912240199303,0.14992479303158138,0.32091986264545014
14806.917240199302,14806.917240199302,0.1492553594164132,0.15383700741982417
14806.922240199301,14806.922240199301,0.14857604269599026,0.1544333427262872
14806.9272401993,14806.9272401993,0.1478867681450408,0.15501912840049004
14806.9322401993,14806.9322401993,0.14718774125381404,0.15559445036381803
14806.937240199299,14806.937240199299,0.14647910141514284,0.15615932884823025
14806.942240199298,14806.942240199298,0.1457607115228471,0.15671348012965344
14806.947240199297,14806.947240199297,0.14503279245553516,0.1572570126210388
14806.952240199296,14806.952240199296,0.14429525255882253,0.15778968604618251
14806.957240199295,14806.957240199295,0.1435483778509694,0.15831168793698375
14806.962240199295,14806.962240199295,0.14279217178092,0.8978015530375139
14806.967240199294,14806.967240199294,0.14202664944462984,0.15932315962431534
14806.972240199293,14806.972240199293,0.14125188786404747,0.1598124565452067
14806.977240199292,14806.977240199292,0.1404679965668614,0.16029076555162955
14806.982240199291,14806.982240199291,0.13967518302993667,0.16075819789268683
14806.98724019929,14806.98724019929,0.13887326940290676,0.1612143912701017
14806.99224019929,14806.99224019929,0.1380625350915376,0.16165954601348115
14806.997240199289,14806.997240199289,0.13724294174788537,0.16209346732231278
14807.002240199288,14807.002240199288,0.13641467874150573,0.16251624935300618
14807.007240199287,14807.007240199287,0.1355777910774645,0.16292780238418486
14807.012240199287,14807.012240199287,0.24224733504437057,0.16332805392268265
14807.017240199286,14807.017240199286,0.1338783731099177,0.16371692097548426
14807.022240199285,14807.022240199285,0.13301596886174039,0.16409434514802484
14807.027240199284,14807.027240199284,0.13214531416471123,0.1644604289516883
14807.032240199283,14807.032240199283,0.13126649038173227,0.16481513029169448
14807.037240199283,14807.037240199283,0.13037956530494554,0.16515838759385082
14807.042240199282,14807.042240199282,0.129484505348763,0.16548999066595146
14807.047240199281,14807.047240199281,0.12858151772317528,0.1658100738662061
14807.05224019928,14807.05224019928,0.38505905389056294,0.1661185321107816
14807.05724019928,14807.05724019928,0.12675194646953172,0.16641529316677103
14807.062240199279,14807.062240199279,0.35503238724562086,0.1667007642699332
14807.067240199278,14807.067240199278,0.12489195575926519,0.6333100675931176
14807.072240199277,14807.072240199277,0.15386064252966014,0.2338666257708053
14807.077240199276,14807.077240199276,0.12300196483391165,0.8724035970841761
14807.082240199275,14807.082240199275,0.12204588603227573,0.16772497163374625
14807.087240199275,14807.087240199275,0.12108263883023725,0.16795162560467689
14807.092240199274,14807.092240199274,0.12011232701820296,0.1681665575898779
14807.097240199273,14807.097240199273,0.11913494845682286,0.1683695797702314
14807.102240199272,14807.102240199272,0.11815066171775963,0.1685607734239412
14807.107240199271,14807.107240199271,0.11715950773065964,0.1687400180302919
14807.11224019927,14807.11224019927,0.11616178224678955,0.16890764434228606
14807.11724019927,14807.11724019927,0.11515735045993271,0.16906321984861947
14807.122240199269,14807.122240199269,0.11414634729494362,0.16920678515583426
14807.127240199268,14807.127240199268,0.11312902678242827,0.16933860926492614
14807.132240199267,14807.132240199267,0.11210536745852126,0.16945845182747474
14807.137240199267,14807.137240199267,0.11107555297144725,0.16956645702294784
14807.142240199266,14807.142240199266,0.11003955390156449,0.16966235632625215
14807.147240199265,14807.147240199265,0.10899750908254814,0.16974620347450622
14807.152240199264,14807.152240199264,0.25940077272547846,0.1698181966085288
14807.157240199263,14807.157240199263,0.10689593953734196,0.16987819451914618
14807.162240199263,14807.162240199263,0.10583660553799236,0.16992629208053736
14807.167240199262,14807.167240199262,0.10477168601493647,0.16996239597873222
14807.172240199261,14807.172240199261,0.10370120308526493,0.1699863138762748
14807.17724019926,14807.17724019926,0.10262540423942941,0.16999835220474174
14807.18224019926,14807.18224019926,0.10154436791734159,0.1699984492390689
14807.187240199259,14807.187240199259,0.10045817880209217,0.1699865527844782
14807.192240199258,14807.192240199258,0.09936690454581609,0.16996256514726388
14807.197240199257,14807.197240199257,0.09827068669116103,0.3041354945382093
14807.202240199256,14807.202240199256,0.09716965005458852,0.16987858755485724
14807.207240199255,14807.207240199255,0.09606393267494749,0.16981871694651382
14807.212240199255,14807.212240199255,0.09495354976895255,0.16974671035303754
14807.217240199254,14807.217240199254,0.09383868096057463,0.16966275092147776
14807.222240199253,14807.222240199253,0.09271945424851853,0.5041873351383444
14807.227240199252,14807.227240199252,0.09159598045441499,0.1694591533794937
14807.232240199251,14807.232240199251,0.0904683188062807,0.16933938659470504
14807.23724019925,14807.23724019925,0.08933659444532727,0.1692076380268206
14807.24224019925,14807.24224019925,0.30693147479006455,0.16906406161613974
14807.247240199249,14807.247240199249,0.08706151572777747,0.16890856844214044
14807.252240199248,14807.252240199248,0.08591832263075315,0.1687410685324601
14807.257240199247,14807.257240199247,0.08477151845758309,0.5517285458695897
14807.262240199247,14807.262240199247,0.45780650805343237,0.16837067295795308
14807.267240199246,14807.267240199246,0.08246776531447954,0.16816777863747023
14807.272240199245,14807.272240199245,0.0813108789388724,0.1679528270120823
14807.277240199244,14807.277240199244,0.08015091369146975,0.167726272629647
14807.282240199243,14807.282240199243,0.07898792513089982,0.16748791562532797
14807.287240199243,14807.287240199243,0.07782205897680575,0.1672378997396568
14807.292240199242,14807.292240199242,0.07665330137645476,0.16697569080990135
14807.297240199241,14807.297240199241,0.35736034671961314,0.16670241854294438
14807.30224019924,14807.30224019924,0.07430814599223683,0.16641724422195925
14807.30724019924,14807.30724019924,0.07313180605770928,0.1661202790223155
14807.312240199239,14807.312240199239,0.07195318601497498,0.165811863947926
14807.317240199238,14807.317240199238,0.07077238821103328,0.16549196987897247
14807.322240199237,14807.322240199237,0.06958947031893482,0.16516029225656875
14807.327240199236,14807.327240199236,0.06840460451657479,0.16481715720124457
14807.332240199235,14807.332240199235,0.06721791163426787,0.16446262548950444
14807.337240199235,14807.337240199235,0.06602948298342398,0.16409655531893588
14807.342240199234,14807.342240199234,0.0648394598723876,0.1637191364852185
14807.347240199233,14807.347240199233,0.06364795454993707,0.16333036392284694
14807.352240199232,14807.352240199232,0.5501418702541491,0.16293022985221503
14807.357240199231,14807.357240199231,0.061260944603595546,0.16251864641560548
14807.36224019923,14807.36224019923,0.06006570757251049,0.16209605085467604
14807.36724019923,14807.36724019923,0.058869448334301556,0.16166207800956334
14807.372240199229,14807.372240199229,0.05767230551088748,0.16121696706164565
14807.377240199228,14807.377240199228,0.056474399131307404,0.16076078234879917
14807.382240199227,14807.382240199227,0.05527584797033978,0.16029357893326665
14807.387240199227,14807.387240199227,0.054076766184674635,0.1598152997701815
14807.392240199226,14807.392240199226,0.05287727600385969,0.15932602599673237
14807.397240199225,14807.397240199225,0.05167749790806221,0.15882581642441918
14807.402240199224,14807.402240199224,0.050477551818970394,0.15831468714804386
14807.407240199223,14807.407240199223,0.05072244178118152,0.15779282019382027
14807.412240199223,14807.412240199223,0.05192236280486283,0.1572600786752932
14807.417240199222,14807.417240199222,0.05312209211967881,0.15671666378511034
14807.422240199221,14807.422240199221,0.05432150692814342,0.15616250869494663
14807.42724019922,14807.42724019922,0.05552049091937591,0.15559778793315449
14807.43224019922,14807.43224019922,0.0567189278508652,0.1550225866762739
14807.437240199219,14807.437240199219,0.05791669188969224,0.15443684713149344
14807.442240199218,14807.442240199218,0.05911365464672867,0.7209758835958163
14807.447240199217,14807.447240199217,0.060309710237906135,0.15323391689865257
14807.452240199216,14807.452240199216,0.061504732998162275,0.15261695409884832
14807.457240199215,14807.457240199215,0.06269861412706601,0.1519898083307457
14807.462240199215,14807.462240199215,0.06389121449525223,0.1513523741122795
14807.467240199214,14807.467240199214,0.5380543024343978,0.15947250760269766
14807.472240199213,14807.472240199213,0.06627215927572999,0.15004737549968586
14807.477240199212,14807.477240199212,0.06746022840821926,0.1493796975682515
14807.482240199211,14807.482240199211,0.06864657240697174,0.14870220310143084
14807.48724019921,14807.48724019921,0.2178567477471226,0.1480146525647351
14807.49224019921,14807.49224019921,0.07101352169927788,0.1473175338155
14807.497240199209,14807.497240199209,0.07219390204954712,0.14661056483700952
14807.502240199208,14807.502240199208,0.07337206563071945,0.1458939486401671
14807.507240199207,14807.507240199207,0.07454789837902108,0.36624839481572924
14807.512240199207,14807.512240199207,0.07572128818978707,0.14443211578021709
14807.517240199206,14807.517240199206,0.07689209444509948,0.1436869737840771
14807.522240199205,14807.522240199205,0.07806021154045231,0.1429324619894813
14807.527240199204,14807.527240199204,0.07922551149751265,0.1421686208954297
14807.532240199203,14807.532240199203,0.08038789166797125,0.14139557408750897
14807.537240199203,14807.537240199203,0.08154721668050018,0.14061334189083446
14807.542240199202,14807.542240199202,0.08270343277422192,0.1398221797688976
14807.547240199201,14807.547240199201,0.6539112178163753,0.3019123312334191
14807.5522401992,14807.5522401992,0.08500589489796416,0.138212861189974
14807.5572401992,14807.5572401992,0.08615192123456995,0.2545524206659122
14807.562240199199,14807.562240199199,0.08729436086607019,0.13656827067886754
14807.567240199198,14807.567240199198,0.08843304777055291,0.1357329275749628
14807.572240199197,14807.572240199197,0.4707112106137945,0.13488900949186855
14807.577240199196,14807.577240199196,0.09069876789932306,0.13403658632277257
14807.582240199195,14807.582240199195,0.09182556450376723,0.13317573941153565
14807.587240199195,14807.587240199195,0.09294812797702975,0.422515500512919
14807.592240199194,14807.592240199194,0.09406655598028275,0.131429298428967
14807.597240199193,14807.597240199193,0.5931074007620507,0.1305438416351915
14807.602240199192,14807.602240199192,0.09628997078432233,0.6397953515439959
14807.607240199191,14807.607240199191,0.09739472335516325,0.12874879531686761
14807.61224019919,14807.61224019919,0.09849477426730018,0.12783941193957707
14807.61724019919,14807.61724019919,0.0995899774114756,0.12692224725354376
14807.622240199189,14807.622240199189,0.10068022094344185,0.12599738933255464
14807.627240199188,14807.627240199188,0.10176541088420721,0.12506495261720615
14807.632240199187,14807.632240199187,0.1028454375726236,0.12954994534721403
14807.637240199187,14807.637240199187,0.10392005470390003,0.12317751583905716
14807.642240199186,14807.642240199186,0.20099159500353453,0.12222288821353398
14807.647240199185,14807.647240199185,0.10605328056160272,0.12126101018042393
14807.652240199184,14807.652240199184,0.10711145318462574,0.12029190972248803
14807.657240199183,14807.657240199183,0.10816400296059867,0.11931588901065455
14807.662240199183,14807.662240199183,0.10921067782980928,0.11833286598384266
14807.667240199182,14807.667240199182,0.11025144562065332,0.11734302612961761
14807.672240199181,14807.672240199181,0.11128617477119132,0.11634643750367256
14807.67724019918,14807.67724019918,0.11231480433725272,0.11534324595966923
14807.68224019918,14807.68224019918,0.11333715850065221,0.11433347425597438
14807.687240199179,14807.687240199179,0.11435323820942433,0.11331732957727922
14807.692240199178,14807.692240199178,0.11536286013028166,0.11229482990248774
14807.697240199177,14807.697240199177,0.11636594532278147,0.111266099799003
14807.702240199176,14807.702240199176,0.11736241135337723,0.11023125844662783
14807.707240199175,14807.707240199175,0.11835201599626258,0.10919028414317393
14807.712240199175,14807.712240199175,0.20239617866900794,0.10814353897744841
14807.717240199174,14807.717240199174,0.6557256075443333,0.10709093587745679
14807.722240199173,14807.722240199173,0.1212797647545265,0.10603256517746393
14807.727240199172,14807.727240199172,0.1222416020074395,0.10496867978864773
14807.732240199171,14807.732240199171,0.12319613062812342,0.10389923246735934
14807.73724019917,14807.73724019917,0.12414337896557885,0.10282442421350617
14807.74224019917,14807.74224019917,0.125083189642992,0.10174431716782315
14807.747240199169,14807.747240199169,0.1260154717086881,0.10065902237733715
14807.752240199168,14807.752240199168,0.12694021932160118,0.09956870626302412
14807.757240199167,14807.757240199167,0.12785717234133423,0.09847336910428163
14807.762240199167,14807.762240199167,0.12876640781958146,0.0973732283586646
14807.767240199166,14807.767240199166,0.12966778973230603,0.09626836344575185
14807.772240199165,14807.772240199165,0.1305611949915452,0.09515886510256247
14807.777240199164,14807.777240199164,0.13144654601514436,0.094044851283984
14807.782240199163,14807.782240199163,0.132323678583625,0.09292639353693631
14807.787240199163,14807.787240199163,0.1331925243285085,0.09180361790660356
14807.792240199162,14807.792240199162,0.1340532605292987,0.09067676754646564
14807.8872254,14807.8872254,0.14833933901052115,0.06854332032500714
14807.892225399999,14807.892225399999,0.14905818055174877,0.06736775458203764
