timestamp,unityTimestamp,localTimestamp,emg1,emg2,rms1,rms2,left_processed,right_processed
106.535166041,106.535166041,106.535166041,0.07530242387564128,0.18359988065511956,0.07530242387564128,0.18359988065511956,0.0,1.0
106.54016604099999,106.54016604099999,106.54016604099999,0.6359186864324302,0.13508582469956687,0.4528040585040588,0.16117862173895187,1.0,1.0
106.54516604099999,106.54516604099999,106.54516604099999,0.07295148628679027,0.559233483226298,0.37210435370871703,0.3486637276673874,1.0,1.0
106.55016604099998,106.55016604099998,106.55016604099998,0.07177250448577015,0.13676105129947203,0.32424382898796467,0.309597630047975,1.0,1.0
106.55516604099998,106.55516604099998,106.55516604099998,0.07059134848400007,0.13758568529374982,0.29172568657144177,0.283666209099019,1.0,1.0
106.56016604099997,106.56016604099997,106.56016604099997,0.0694081363074665,0.13840157132188835,0.2678111493862703,0.26504326246464294,1.0,1.0
106.56516604099997,106.56516604099997,106.56516604099997,0.06822295726058075,0.13920849114193154,0.2492821815622237,0.2509600394694123,1.0,1.0
106.57016604099996,106.57016604099996,106.57016604099996,0.06703602010732992,0.14000680149888198,0.2343835185925998,0.2399136548686241,1.0,1.0
106.57516604099996,106.57516604099996,106.57516604099996,0.06584734276841678,0.14079593503423196,0.22206629211727694,0.23101033879257293,1.0,1.0
106.58016604099996,106.58016604099996,106.58016604099996,0.06465707993403323,0.1415759845833699,0.21166045469998357,0.22368186092579892,1.0,1.0
106.58516604099995,106.58516604099995,106.58516604099995,0.06346534597281649,0.14234683745025048,0.20271550395420654,0.21754798241983989,1.0,1.0
106.59016604099995,106.59016604099995,106.59016604099995,0.062272280974675596,0.14310856431966537,0.19491604345531183,0.21234375282899354,1.0,1.0
106.59516604099994,106.59516604099994,106.59516604099994,0.06107797307718348,0.14386086319530003,0.18803389357946437,0.2078783631663377,1.0,1.0
106.60016604099994,106.60016604099994,106.60016604099994,0.05988256200008184,0.1446038055157514,0.1818994243260715,0.20401061613044666,1.0,1.0
106.60516604099993,106.60516604099993,106.60516604099993,0.05868616729018319,0.14533733190995668,0.17638361114597134,0.20063359322600116,1.0,1.0
106.61016604099993,106.61016604099993,106.61016604099993,0.057488900686419535,0.1460612894216806,0.1713863777980056,0.19766472264120172,1.0,1.0
106.61516604099992,106.61516604099992,106.61516604099992,0.0562908889303308,0.14677569289452277,0.17092960119786002,0.1957319067432007,1.0,1.0
106.62016604099992,106.62016604099992,106.62016604099992,0.05509224561916917,0.1474803906069832,0.0642813332274458,0.19629027527110368,0.0,1.0
106.62516604099991,106.62516604099991,106.62516604099991,0.053893092999069386,0.14817534447153852,0.06309515777058561,0.14267353438092759,0.0,0.31075212702467786
106.63016604099991,106.63016604099991,106.63016604099991,0.05269355035552043,0.14886046859076787,0.06190784521893778,0.14342847794294064,0.0,0.33907716656015613
106.6351660409999,106.6351660409999,106.6351660409999,0.05149373753812468,0.14953565123645074,0.06071952286913526,0.14417410107952305,0.0,0.36705250920159577
106.6401660409999,106.6401660409999,106.6401660409999,0.05029377685406285,0.15020094058243644,0.05953031891600356,0.14491033226639183,0.0,0.39467547139986076
106.6451660409999,106.6451660409999,106.6451660409999,0.05090621337341526,0.15085620848875997,0.05843736635626329,0.1456371050750993,0.0,0.42194356079856715
106.65016604099989,106.65016604099989,106.65016604099989,0.05210611228398344,0.15150135291881575,0.05747827390198125,0.14635432549654379,0.0,0.44885325023137274
106.65516604099989,106.65516604099989,106.65516604099989,0.053305802189423296,0.1521364212312152,0.056659987827288344,0.14706193695337405,0.0,0.4754024169492525
106.66016604099988,106.66016604099988,106.66016604099988,0.05450516116996024,0.15276124574002628,0.055988805877817446,0.14775986675958072,0.0,0.5015883338157782
106.66516604099988,106.66516604099988,106.66516604099988,0.0557040718768715,0.15337582969750757,0.05547016969856251,0.14844804954096222,0.0,0.5274085480292603
106.67016604099987,106.67016604099987,106.67016604099987,0.056902405617864,0.15397996214502624,0.05510846260416143,0.1491264023741276,0.0,0.5528599483527207
106.67516604099987,106.67516604099987,106.67516604099987,0.05810005252270223,0.15457376037440637,0.05490684139831288,0.14979486840296613,0.0,0.5779404015782398
106.68016604099986,106.68016604099986,106.68016604099986,0.059296889490030036,0.15515710302893396,0.05486710056407377,0.15045337891862154,0.0,0.6026473297898418
106.68516604099986,106.68516604099986,106.68516604099986,0.06049279465462468,0.15572990940028852,0.05498959649495425,0.15110186387905722,0.0,0.626978105051405
106.69016604099986,106.69016604099986,106.69016604099986,0.06168765620227801,0.15629219787177284,0.055273233117646786,0.15174026392401335,0.0,0.6509305002008068
106.69516604099985,106.69516604099985,106.69516604099985,0.06288134762580508,0.15684384154928294,0.05571550754228693,0.15236851088293657,0.0,0.674501957518879
106.70016604099985,106.70016604099985,106.70016604099985,0.06407374567923191,0.15738475700572882,0.056312617285736985,0.1529865406382006,0.0,0.6976900713499009
106.70516604099984,106.70516604099984,106.70516604099984,0.06526474554242247,0.15791500419612947,0.057059615418234365,0.15359429548816775,0.0,0.7204926767622777
106.71016604099984,106.71016604099984,106.71016604099984,0.06645418543398036,0.158434232781547,0.0579505952835328,0.1541917006343321,0.0,0.7429069673599513
106.71516604099983,106.71516604099983,106.71516604099983,0.06764202346663385,0.1589429100963875,0.05897890631004677,0.15477871833510387,0.0,0.764931527100615
106.72016604099983,106.72016604099983,106.72016604099983,0.06882809043519503,0.5949969810526377,0.060137355422387795,0.2113593372820951,0.0,1.0
106.72516604099982,106.72516604099982,106.72516604099982,0.07001226383285472,0.15992736199813554,0.06132612555130923,0.21177574766384688,0.0,1.0
106.73016604099982,106.73016604099982,106.73016604099982,0.07119443928777008,0.16040310923012113,0.06251394846867576,0.2121850569508489,0.0,1.0
106.73516604099981,106.73516604099981,106.73516604099981,0.07237448396627852,0.486440400276732,0.06370069536150841,0.24158833097959556,0.0,1.0
106.74016604099981,106.74016604099981,106.74016604099981,0.07355231746026202,0.16132145034040046,0.06488624095399916,0.24193585911197507,0.0,1.0
106.7451660409998,106.7451660409998,106.7451660409998,0.07472777224583847,0.1617638965577496,0.06607045697748032,0.24227705884510334,0.0,1.0
106.7501660409998,106.7501660409998,106.7501660409998,0.07590075837231099,0.1621951872721308,0.06725321828721342,0.24261185846870156,0.0,1.0
106.7551660409998,106.7551660409998,106.7551660409998,0.2016128430760336,0.16261527138887077,0.08277984669813278,0.24294018052377475,0.0,1.0
106.76016604099979,106.76016604099979,106.76016604099979,0.07823886562691172,0.16302416025105612,0.08375755462242457,0.243261953870208,0.0,1.0
106.76516604099979,106.76516604099979,106.76516604099979,0.09574028818394681,0.16342169612104926,0.08578755441411416,0.24357710500133184,0.0,1.0
106.77016604099978,106.77016604099978,106.77016604099978,0.31125240244865343,0.1638077299064771,0.11478914446170466,0.24388555443009555,0.0,1.0
106.77516604099978,106.77516604099978,106.77516604099978,0.08172450345955971,0.16418254618711017,0.11552856615532256,0.2441872407082508,0.0,1.0
106.78016604099977,106.78016604099977,106.78016604099977,0.0828801841665551,0.16454586460844178,0.11627372704328756,0.24448209497544687,0.0,1.0
106.78516604099977,106.78516604099977,106.78516604099977,0.08403262804340186,0.16489790519262162,0.11702437491121098,0.24477005622675566,0.0,1.0
106.79016604099976,106.79016604099976,106.79016604099976,0.08518165420367524,0.16523840166350842,0.11778025742482674,0.2450510673909649,0.0,1.0
106.79516604099976,106.79516604099976,106.79516604099976,0.1412890062650547,0.16556726552442874,0.12179443865013945,0.24532504978275096,0.0,1.0
106.80016604099976,106.80016604099976,106.80016604099976,0.08746897307268882,0.16588458067202227,0.12253970779789013,0.19944397199738947,0.0,1.0
106.80516604099975,106.80516604099975,106.80516604099975,0.08860705550504053,0.16619026600300477,0.1232895912560517,0.1997637371459086,0.0,1.0
106.81016604099975,106.81016604099975,106.81016604099975,0.08974133825079339,0.16648451510042267,0.12404385126813322,0.20007447787847768,0.0,1.0
106.81516604099974,106.81516604099974,106.81516604099974,0.09087161634308251,0.16676702329853885,0.1248022479080183,0.1642528013863073,0.0,1.0
106.82016604099974,106.82016604099974,106.82016604099974,0.09199780049236682,0.16703783565305208,0.12556454247168305,0.16460952896394718,0.0,1.0
106.82516604099973,106.82516604099973,106.82516604099973,0.09311978946193424,0.16729695718343096,0.12633050019259465,0.16495481693198016,0.0,1.0
106.83016604099973,106.83016604099973,106.83016604099973,0.09423745192275164,0.16754431030209316,0.12709988608521144,0.16528862695399146,0.0,1.0
106.83516604099972,106.83516604099972,106.83516604099972,0.09535072262267773,0.16777999350035286,0.1190887585210725,0.16561093014492476,0.0,1.0
106.84016604099972,106.84016604099972,106.84016604099972,0.0964594112301619,0.16800377760945903,0.11992112418630854,0.16592168246663863,0.0,1.0
106.84516604099971,106.84516604099971,106.84516604099971,0.09756349192317562,0.1682158586868626,0.12001292862448897,0.16622086206152772,0.0,1.0
106.85016604099971,106.85016604099971,106.85016604099971,0.0986628082042132,0.16841609765017398,0.09463942766003693,0.1665084474813212,0.0,1.0
106.8551660409997,106.8551660409997,106.8551660409997,0.09975724395634333,0.16860446086975261,0.0957139467179299,0.16678439770309297,0.0,1.0
106.8601660409997,106.8601660409997,106.8601660409997,0.10084675960770079,0.16878109481621215,0.09678568383839592,0.16704869826688176,0.0,1.0
106.8651660409997,106.8651660409997,106.8651660409997,0.2724695253141492,0.16894562982774264,0.11647361750255183,0.16730129784753858,0.0,1.0
106.87016604099969,106.87016604099969,106.87016604099969,0.10301034007851073,0.6512870681814993,0.11737037348078622,0.22976981742328495,0.0,1.0
106.87516604099969,106.87516604099969,106.87516604099969,0.10408423199521089,0.16923934691299017,0.11491404863934558,0.22993696705700317,0.0,1.0
106.88016604099968,106.88016604099968,106.88016604099968,0.1051527053104718,0.1693682461987138,0.11583665422122823,0.23009563905929278,0.0,1.0
106.88516604099968,106.88516604099968,106.88516604099968,0.10621569792003101,0.16948528349382738,0.11675847174243402,0.23024580705092423,0.0,1.0
106.89016604099967,106.89016604099967,106.89016604099967,0.10727301702735301,0.16959026188808551,0.11767928980102225,0.23038742774286067,0.0,1.0
106.89516604099967,106.89516604099967,106.89516604099967,0.10832459192188477,0.16968324894439285,0.11859890664741764,0.23052047559598948,0.0,1.0
106.90016604099966,106.90016604099966,106.90016604099966,0.10937042797136022,0.7511881400084794,0.11951712893624582,0.2943867585606732,0.0,1.0
106.90516604099966,106.90516604099966,106.90516604099966,0.11041031397132361,0.1698336650082222,0.12043375979880565,0.294477526704188,0.0,1.0
106.91016604099966,106.91016604099966,106.91016604099966,0.11144414003291217,0.16989084777276223,0.12134860603628835,0.29456154110637434,0.0,1.0
106.91516604099965,106.91516604099965,106.91516604099965,0.11247180329455694,0.16993600541952866,0.1222614752341441,0.2946387771176729,0.0,1.0
106.92016604099965,106.92016604099965,106.92016604099965,0.11349322157489554,0.16996917394472338,0.12317218297759203,0.2947092205147693,0.0,1.0
106.92516604099964,106.92516604099964,106.92516604099964,0.11450820542568128,0.16999018731084733,0.12408053853873828,0.2947728450827629,0.0,1.0
106.93016604099964,106.93016604099964,106.93016604099964,0.11551688750128261,0.16999947974820873,0.12498636982693745,0.2948296461876262,0.0,1.0
106.93516604099963,106.93516604099963,106.93516604099963,0.20544460409887674,0.5398763045733604,0.13280659337732315,0.3215034296427238,0.0,1.0
106.94016604099963,106.94016604099963,106.94016604099963,0.11751440013274474,0.1699818837741148,0.13366025615974536,0.32154296633542806,0.0,1.0
106.94516604099962,106.94516604099962,106.94516604099962,0.11850309435709555,0.169955113514859,0.11875509630493464,0.3215762139416307,0.0,1.0
106.95016604099962,106.95016604099962,106.95016604099962,0.11948485950414452,0.16991621036832724,0.1197157748225833,0.2805437638914399,0.0,1.0
106.95516604099961,106.95516604099961,106.95516604099961,0.6216053692131569,0.1698654156921176,0.1944334036930344,0.28056741148950465,1.0,1.0
106.96016604099961,106.96016604099961,106.96016604099961,0.1214274936181345,0.16980251996852935,0.19502517791281573,0.2805838167114654,1.0,1.0
106.9651660409996,106.9651660409996,106.9651660409996,0.4055354469627141,0.16972787067133044,0.21819348417422665,0.28059298146599415,1.0,1.0
106.9701660409996,106.9701660409996,106.9701660409996,0.12334161942339954,0.1696410159275682,0.21872356975718973,0.2805948989786343,1.0,1.0
106.9751660409996,106.9751660409996,106.9751660409996,0.1242876946933997,0.1695422583104322,0.21925345112939626,0.2805895723412085,1.0,1.0
106.98016604099959,106.98016604099959,106.98016604099959,0.12522642583013158,0.5782682752592994,0.2197829867912266,0.25369749533005864,1.0,1.0
106.98516604099959,106.98516604099959,106.98516604099959,0.12615751103641537,0.1693089674345189,0.2203120316570365,0.25367557515352407,1.0,1.0
106.99016604099958,106.99016604099958,106.99016604099958,0.12708114127406875,0.16917457287990237,0.2208404515715844,0.25364565524857824,1.0,1.0
106.99516604099958,106.99516604099958,106.99516604099958,0.12799691051943612,0.1690280243945898,0.221368101723641,0.2536077337538824,1.0,1.0
107.00016604099957,107.00016604099957,107.00016604099957,0.12890493482363297,0.16886965725311612,0.2218948447815554,0.25356182221573387,1.0,1.0
107.00516604099957,107.00516604099957,107.00516604099957,0.12980505158887184,0.16869937868540363,0.22242054431839653,0.25350793621116174,1.0,1.0
107.01016604099956,107.01016604099956,107.01016604099956,0.13069731089392195,0.1685174113450509,0.22294506222598695,0.25344608331512725,1.0,1.0
107.01516604099956,107.01516604099956,107.01516604099956,0.1315814306882124,0.1683234875199619,0.21942797791698643,0.2186071028374235,1.0,1.0
107.02016604099956,107.02016604099956,107.02016604099956,0.1324572898252596,0.16811758357971443,0.2199593001092892,0.21851697984264792,1.0,1.0
107.02516604099955,107.02516604099955,107.02516604099955,0.13332502703214047,0.16790004538957487,0.22048895646012637,0.21841766359214285,1.0,1.0
107.03016604099955,107.03016604099955,107.03016604099955,0.13418425304006398,0.16767046580302092,0.2210168066074392,0.21830916707468392,1.0,1.0
107.03516604099954,107.03516604099954,107.03516604099954,0.13503522291939957,0.16742934730087838,0.1607436113119021,0.21819151646988053,1.0,1.0
107.04016604099954,107.04016604099954,107.04016604099954,0.13587769821296347,0.167176497557891,0.1614648278083227,0.2180647397131869,1.0,1.0
107.04516604099953,107.04516604099953,107.04516604099953,0.13671157115136504,0.16691190856129925,0.13023183770927696,0.21792884825612102,0.0,1.0
107.05016604099953,107.05016604099953,107.05016604099953,0.13753676004316034,0.1666356102629772,0.13111743546610954,0.21778387778348746,0.0,1.0
107.05516604099952,107.05516604099952,107.05516604099952,0.13835316378306797,0.2923855206674525,0.13199495184663668,0.225779454626299,0.0,1.0
107.06016604099952,107.06016604099952,107.06016604099952,0.13916073132380524,0.16604796752039355,0.13286429364776722,0.17832546148963715,0.0,1.0
107.06516604099951,107.06516604099951,107.06516604099951,0.1399594691061311,0.16573683532097438,0.13372538647959872,0.1781156042392731,0.0,1.0
107.07016604099951,107.07016604099951,107.07016604099951,0.14074912259974676,0.1654140148959933,0.1345781285329658,0.17789471180154154,0.0,1.0
107.0751660409995,107.0751660409995,107.0751660409995,0.1415297444219821,0.16507970809359285,0.13542244605414347,0.1776628289740119,0.0,1.0
107.0801660409995,107.0801660409995,107.0801660409995,0.14230116995463327,0.16473383871115765,0.13625824816161836,0.1774199765493786,0.0,1.0
107.0851660409995,107.0851660409995,107.0851660409995,0.14306330847039125,0.5619722818220705,0.1370854482352329,0.22234530218052398,0.0,1.0
107.09016604099949,107.09016604099949,107.09016604099949,0.14381614722982514,0.164007586995819,0.1379039563914873,0.22213443354950207,0.0,1.0
107.09516604099949,107.09516604099949,107.09516604099949,0.14455978269065356,0.16362756275879783,0.13871370626320959,0.2219150299012597,0.0,1.0
107.10016604099948,107.10016604099948,107.10016604099948,0.1452937234481182,0.16323588933742325,0.13951460706006316,0.22168712772682717,0.0,1.0
107.10516604099948,107.10516604099948,107.10516604099948,0.14601827578049106,0.16283306102540193,0.14030658024455941,0.2214507707874103,0.0,1.0
107.11016604099947,107.11016604099947,107.11016604099947,0.14673330575822255,0.16241904171889765,0.14108956211693688,0.2212060213533547,0.0,1.0
107.11516604099947,107.11516604099947,107.11516604099947,0.14743865107250095,0.16199376522487513,0.14186346363113783,0.22095291576513348,0.0,1.0
107.12016604099946,107.12016604099946,107.12016604099946,0.14813408173550535,0.16155709325316567,0.1426281954757585,0.22069149405993702,0.0,1.0
107.12516604099946,107.12516604099946,107.12516604099946,0.14881971011069461,0.16110928031582197,0.14338368254998005,0.2204218092361243,0.0,1.0
107.13016604099946,107.13016604099946,107.13016604099946,0.14949559536515333,0.1606505126203246,0.144129858854764,0.220143922296909,0.0,1.0
107.13516604099945,107.13516604099945,107.13516604099945,0.150161539781583,0.16018068817558404,0.14486665194168621,0.21148021546895154,0.0,1.0
107.14016604099945,107.14016604099945,107.14016604099945,0.15081746304317847,0.15969983886277223,0.14559398758467476,0.21117442665540853,0.0,1.0
107.14516604099944,107.14516604099944,107.14516604099944,0.15146312773164006,0.15920782772758826,0.1463117761841737,0.21086023946553054,0.0,1.0
107.15016604099944,107.15016604099944,107.15016604099944,0.15209884372458538,0.1587051087380088,0.1470199638553471,0.21053772889539676,0.0,1.0
107.15516604099943,107.15516604099943,107.15516604099943,0.15272427104547087,0.15819143453407986,0.14771847183973388,0.21020694930094927,0.0708572881476383,1.0
107.16016604099943,107.16016604099943,107.16016604099943,0.15333945055357592,0.1576669666543345,0.14840723425937563,0.20986796731934446,0.17824640726644195,1.0
107.16516604099942,107.16516604099942,107.16516604099942,0.15394405701373126,0.15713148523541817,0.1490861699965048,0.16077750103482272,0.28410338881677405,0.990002334620583
107.17016604099942,107.17016604099942,107.17016604099942,0.1545384892957599,0.15658551958691105,0.1497552248290132,0.16031434234343914,0.3884197787014417,0.9726248922464026
107.17516604099941,107.17516604099941,107.17516604099941,0.34172629972587865,0.37144539574916835,0.1685796123071724,0.180694617467051,1.0,1.0
107.18016604099941,107.18016604099941,107.18016604099941,0.1556958928578068,0.5451598230092651,0.16915900728854869,0.22262103359194527,1.0,1.0
107.1851660409994,107.1851660409994,107.1851660409994,0.15625869644285453,0.15488376209195542,0.1697298882234779,0.22226622094315066,1.0,1.0
107.1901660409994,107.1901660409994,107.1901660409994,0.1568110365962366,0.15429556915662088,0.17029217493056586,0.22190419457308483,1.0,1.0
107.1951660409994,107.1951660409994,107.1951660409994,0.15735262375630005,0.15369687551388725,0.17084578021095373,0.2215350275178103,1.0,1.0
107.20016604099939,107.20016604099939,107.20016604099939,0.15788364596092996,0.15308797495427154,0.1713906410339635,0.22115881289983944,1.0,1.0
107.20516604099939,107.20516604099939,107.20516604099939,0.15840376242250256,0.7921050388109263,0.1719266695383348,0.2941145313349499,1.0,1.0
107.21016604099938,107.21016604099938,107.21016604099938,0.1589129002360744,0.15183894953318078,0.17245377134259765,0.29382182101447585,1.0,1.0
107.21516604099938,107.21516604099938,107.21516604099938,0.15941126168133954,0.15119917206411654,0.17297187530163322,0.2935242256650924,1.0,1.0
107.22016604099937,107.22016604099937,107.22016604099937,0.15989862694852158,0.15054922368250634,0.17348090277950298,0.29322181951716214,1.0,1.0
107.22516604099937,107.22516604099937,107.22516604099937,0.1603751186402897,0.1498893260093031,0.17398079593803195,0.2929146894465466,1.0,1.0
107.23016604099936,107.23016604099936,107.23016604099936,0.16084044776448717,0.1492193255714518,0.17447146418870743,0.2926029028693928,1.0,1.0
107.23516604099936,107.23516604099936,107.23516604099936,0.16129456789257185,0.1485392931093839,0.1749528335944619,0.29228653876793254,1.0,1.0
107.24016604099936,107.24016604099936,107.24016604099936,0.1617378267928333,0.14784964477066168,0.17542484880342987,0.2919656847349361,1.0,1.0
107.24516604099935,107.24516604099935,107.24516604099935,0.1621697211224852,0.14715004384129532,0.17588744394541025,0.29164042594799516,1.0,1.0
107.25016604099935,107.25016604099935,107.25016604099935,0.16259055840208617,0.146440866539822,0.176340549791108,0.2913108424864538,1.0,1.0
107.25516604099934,107.25516604099934,107.25516604099934,0.16300004737561297,0.14572196795792944,0.15955562970524473,0.27850665624058196,1.0,1.0
107.26016604099934,107.26016604099934,107.26016604099934,0.16339806758221198,0.14499335572507752,0.16003626561013568,0.24557065705539322,1.0,1.0
107.26516604099933,107.26516604099933,107.26516604099933,0.16378513383099672,0.144255567352384,0.1605059365757665,0.24516574121630982,1.0,1.0
107.27016604099933,107.27016604099933,107.27016604099933,0.16416053547637927,0.14350811507436592,0.16096456734063574,0.244755912478268,1.0,1.0
107.27516604099932,107.27516604099932,107.27516604099932,0.16452461848949762,0.8476632014602035,0.16141212255292584,0.321461261337986,1.0,1.0
107.28016604099932,107.28016604099932,107.28016604099932,0.16487719677416887,0.14198535215627323,0.1618485436424367,0.321142627270918,1.0,1.0
107.28516604099931,107.28516604099931,107.28516604099931,0.1652184458417466,0.1412102394118148,0.1622738041404868,0.25527330109274154,1.0,1.0
107.29016604099931,107.29016604099931,107.29016604099931,0.16554785806215908,0.1404257568492372,0.16268784980967568,0.2548646281121496,1.0,1.0
107.2951660409993,107.2951660409993,107.2951660409993,0.16586587740155598,0.13963236017298727,0.16309064246349347,0.2544518207070979,1.0,1.0
107.3001660409993,107.3001660409993,107.3001660409993,0.16617236148041842,0.1388300404315606,0.16348214836917924,0.25403498483886733,1.0,1.0
107.3051660409993,107.3051660409993,107.3051660409993,0.166467323903119,0.13801890925493718,0.16386232723978542,0.2536142229861301,1.0,1.0
107.31016604099929,107.31016604099929,107.31016604099929,0.1667504249387502,0.1371988135525877,0.1642311349887692,0.25318963902206476,1.0,1.0
107.31516604099929,107.31516604099929,107.31516604099929,0.16702193682441738,0.1363700633773278,0.16458854777598395,0.2527613456303787,1.0,1.0
107.32016604099928,107.32016604099928,107.32016604099928,0.16728183352425274,0.1355327394844527,0.16493451885439353,0.25232944382436645,1.0,1.0
107.32516604099928,107.32516604099928,107.32516604099928,0.167529889764688,0.13468677994272418,0.16526901813242792,0.2518940457836725,1.0,1.0
107.33016604099927,107.33016604099927,107.33016604099927,0.43372075348558425,0.13383232357790065,0.19343919845682606,0.2514552554955847,1.0,1.0
107.33516604099927,107.33516604099927,107.33516604099927,0.16799082630755854,0.13296961752337877,0.19370587856866814,0.2510131913242283,1.0,1.0
107.34016604099926,107.34016604099926,107.34016604099926,0.1682035985536857,0.13209854115622974,0.1939627864355947,0.25056796818323107,1.0,1.0
107.34516604099926,107.34516604099926,107.34516604099926,0.1684045485625756,0.13121925355283962,0.19420986108175117,0.2501196876825135,1.0,1.0
107.35016604099926,107.35016604099926,107.35016604099926,0.16859363741870267,0.13033182974169266,0.19444707754175472,0.2496684723555907,1.0,1.0
107.35516604099925,107.35516604099925,107.35516604099925,0.1687707467033447,0.12943629256732936,0.1946743868434797,0.1359159639579278,1.0,0.05721204929375779
107.36016604099925,107.36016604099925,107.36016604099925,0.16893624972152815,0.12853299278492752,0.19489177072480882,0.13507666298835472,1.0,0.025721969317538985
107.36516604099924,107.36516604099924,107.36516604099924,0.16908957426740304,0.12762165181975443,0.19509917125970713,0.13422886994876826,1.0,0.0
107.37016604099924,107.37016604099924,107.37016604099924,0.16923133643130273,0.12670277406507396,0.19529659142265973,0.13337269965511064,1.0,0.0
107.37516604099923,107.37516604099923,107.37516604099923,0.1693609378668814,0.12577607180593792,0.19548397887197658,0.1325082206044523,1.0,0.0
107.38016604099923,107.38016604099923,107.38016604099923,0.16947863166809818,0.12484181036126524,0.19566130314941274,0.13163551808216992,1.0,0.0
107.38516604099922,107.38516604099922,107.38516604099922,0.1695844520682835,0.12390011106001707,0.195828535532021,0.13075467777027677,1.0,0.0
107.39016604099922,107.39016604099922,107.39016604099922,0.16967794077626677,0.12295079326156547,0.195985641155589,0.12986578534788162,1.0,0.0
107.39516604099921,107.39516604099921,107.39516604099921,0.169759872765659,0.12199443223634085,0.19613261324412462,0.12896894068328132,1.0,0.0
107.40016604099921,107.40016604099921,107.40016604099921,0.20628764313072837,0.1210308819952954,0.19844070454557464,0.1280642303445527,1.0,0.0
107.4051660409992,107.4051660409992,107.4051660409992,0.3551641744238876,0.5873605639355812,0.21332702863771416,0.19190802759317852,1.0,1.0
107.4101660409992,107.4101660409992,107.4101660409992,0.1699335883903828,0.2774395608559196,0.18856339630504032,0.20129590718158744,1.0,1.0
107.4151660409992,107.4151660409992,107.4151660409992,0.16996757898374387,0.11809783226313927,0.18867407926759008,0.20071541650585026,1.0,1.0
107.42016604099919,107.42016604099919,107.42016604099919,0.2821559895738648,0.11710629955206076,0.196990812426234,0.20013288016794054,1.0,1.0
107.42516604099919,107.42516604099919,107.42516604099919,0.16999925282208653,0.1161081576501771,0.19707640283483113,0.1995484476510338,1.0,1.0
107.43016604099918,107.43016604099918,107.43016604099918,0.16999712240770373,0.11510337280151216,0.1971517410394049,0.19896226525799188,1.0,1.0
107.43516604099918,107.43516604099918,107.43516604099918,0.16998297523788344,0.11409206913141758,0.1972168208542655,0.19837448398650234,1.0,1.0
107.44016604099917,107.44016604099917,107.44016604099917,0.16995691303717492,0.1130744007730596,0.1972716221775459,0.1977852472105973,1.0,1.0
107.44516604099917,107.44516604099917,107.44516604099917,0.16991873318178824,0.1120503610917343,0.19731614518728866,0.19719471050748594,1.0,1.0
107.45016604099916,107.45016604099916,107.45016604099916,0.1698688489012529,0.1110202638620054,0.19735037988021625,0.19660302128691698,1.0,1.0
107.45516604099916,107.45516604099916,107.45516604099916,0.16980661962716131,0.1099838819059123,0.1973743144091805,0.196010331632427,1.0,1.0
107.46016604099916,107.46016604099916,107.46016604099916,0.16973262878115072,0.10894161213999935,0.19738795532161618,0.195416797983798,1.0,1.0
107.46516604099915,107.46516604099915,107.46516604099915,0.16964660200485063,0.10789341661516419,0.19739129313454815,0.19482257164790623,1.0,1.0
107.47016604099915,107.47016604099915,107.47016604099915,0.24223639355653775,0.10683942412223543,0.20206759829053328,0.19422781658389904,1.0,1.0
107.47516604099914,107.47516604099914,107.47516604099914,0.16943862628708536,0.10577974487972788,0.20205074581325963,0.19363267878404022,1.0,1.0
107.48016604099914,107.48016604099914,107.48016604099914,0.1693167764735616,0.10471451667506056,0.1998914769984701,0.1930373157409056,1.0,1.0
107.48516604099913,107.48516604099913,107.48516604099913,0.16918277881410132,0.598343502555235,0.18401543126174533,0.19513408839798593,1.0,1.0
107.49016604099913,107.49016604099913,107.49016604099913,0.16903722596142212,0.1025677200146581,0.1839638249725742,0.18418476228703196,1.0,1.0
107.49516604099912,107.49516604099912,107.49516604099912,0.16887953279672624,0.1014863585492106,0.18390118628435423,0.1835648403027548,1.0,1.0
107.50016604099912,107.50016604099912,107.50016604099912,0.1687100691105767,0.10039989916142003,0.1749938259688704,0.18294518712630503,1.0,1.0
107.50516604099911,107.50516604099911,107.50516604099911,0.16852844902043312,0.0993082796987659,0.1749048881186461,0.1823259605121193,1.0,1.0
107.51016604099911,107.51016604099911,107.51016604099911,0.16833531755201803,0.09821187239566512,0.17480440421246127,0.18170733327865593,1.0,1.0
107.5151660409991,107.5151660409991,107.5151660409991,0.16813023284989329,0.0971105937124718,0.1746923794561123,0.18108947143752405,1.0,1.0
107.5201660409991,107.5201660409991,107.5201660409991,0.16791324877323469,0.09600457024185109,0.17456881627761256,0.1804725401628814,1.0,1.0
107.5251660409991,107.5251660409991,107.5251660409991,0.16768466137131524,0.09489401937046354,0.1744337473867547,0.1798567130275131,1.0,1.0
107.53016604099909,107.53016604099909,107.53016604099909,0.1674439511784693,0.09377884504079566,0.1742871493034913,0.1792421491178511,1.0,1.0
107.53516604099909,107.53516604099909,107.53516604099909,0.16719198945027972,0.09265947651350706,0.1741290900209774,0.1786290312062332,1.0,1.0
107.54016604099908,107.54016604099908,107.54016604099908,0.16692788077261894,0.09153568596101988,0.17395954845358735,0.1780175201320665,1.0,1.0
107.54516604099908,107.54516604099908,107.54516604099908,0.16665234047577704,0.090407835116761,0.17377856329699412,0.17740779064156423,1.0,1.0
107.55016604099907,107.55016604099907,107.55016604099907,0.4157995911669877,0.08927591125859535,0.19322827410805377,0.17680001284456598,1.0,1.0
107.55516604099907,107.55516604099907,107.55516604099907,0.16606621038024,0.0881400930464106,0.1930452007931747,0.17619435899114874,1.0,1.0
107.56016604099906,107.56016604099906,107.56016604099906,0.16575546346432884,0.08700036118812664,0.19285193408112844,0.17559099619022356,1.0,1.0
107.56516604099906,107.56516604099906,107.56516604099906,0.16543348551873177,0.08585703985373426,0.1926485337903143,0.09442975277010844,1.0,0.0
107.57016604099906,107.57016604099906,107.57016604099906,0.16509991760703255,0.2825717597189194,0.1924350085382793,0.11510818648482996,1.0,0.0
107.57516604099905,107.57516604099905,107.57516604099905,0.16475470416967478,0.37171185962146863,0.1922113966649803,0.14574561295818086,1.0,0.4260147129122441
107.58016604099905,107.58016604099905,107.58016604099905,0.1643980539428575,0.08240590174846275,0.1919777280128058,0.14503860090426093,1.0,0.3994880354399016
107.58516604099904,107.58516604099904,107.58516604099904,0.16403000054289574,0.08124889209567927,0.19173405601839022,0.14433432978814645,1.0,0.37306419634596244
107.59016604099904,107.59016604099904,107.59016604099904,0.16365056671356407,0.08008876322375137,0.19148040053856413,0.14363299982105923,1.0,0.34675070743800945
107.59516604099903,107.59516604099903,107.59516604099903,0.16325971360254946,0.07892561072977264,0.19121680423245532,0.1429348196774104,1.0,0.32055539805752203
107.60016604099903,107.60016604099903,107.60016604099903,0.48537683645324037,0.07775956745638728,0.22254461263218436,0.1422399986912751,1.0,0.29448612229618776
107.60516604099902,107.60516604099902,107.60516604099902,0.1624440989090679,0.07659075224919402,0.22230154258868037,0.14154874250168178,1.0,0.26855059560970934
107.61016604099902,107.61016604099902,107.61016604099902,0.16201939690242026,0.07541927418615767,0.22205016628896,0.14086126579069294,1.0,0.2427568727431213
107.61516604099901,107.61516604099901,107.61516604099901,0.16158353691509775,0.07424526376657027,0.2217905120334455,0.1401777710191844,1.0,0.21711254990970527
107.62016604099901,107.62016604099901,107.62016604099901,0.16113642576403028,0.1861198731850014,0.22152264697679558,0.14591494637214106,1.0,0.4323680032592873
107.625166040999,107.625166040999,107.625166040999,0.16067825528431354,0.07189005880500604,0.22124661425557068,0.1452698672086379,1.0,0.4081650115005154
107.630166040999,107.630166040999,107.630166040999,0.16020905897690152,0.0707091277195824,0.19937067733189898,0.1446294708714428,1.0,0.3841377166374941
107.635166040999,107.635166040999,107.635166040999,0.15972876973517772,0.06952611191931513,0.1990467855379016,0.143993955113844,1.0,0.36029353825758237
107.64016604099899,107.64016604099899,107.64016604099899,0.1592375318631608,0.06834114822415868,0.19871394063029693,0.14336352295889623,1.0,0.33664009366668285
107.64516604099899,107.64516604099899,107.64516604099899,0.2911979992549455,0.06715434452168156,0.2075487472637973,0.14273836864580824,1.0,0.313184670605951
107.65016604099898,107.65016604099898,107.65016604099898,0.158222383320471,0.06596584460964237,0.2072136668456781,0.12512308025577337,1.0,0.0
107.65516604099898,107.65516604099898,107.65516604099898,0.157698523808904,0.06477573428681632,0.20687024488607242,0.08533710819897938,1.0,0.0
107.66016604099897,107.66016604099897,107.66016604099897,0.15716388204479345,0.06358414491496453,0.20651854293058775,0.0843248789703471,1.0,0.0
107.66516604099897,107.66516604099897,107.66516604099897,0.1566185387194315,0.06239119935322551,0.20615862563498222,0.08331500566516273,1.0,0.0
107.67016604099896,107.67016604099896,107.67016604099896,0.15606253208894427,0.06119701462945628,0.2057905592944587,0.08230777124177938,1.0,0.0
107.67516604099896,107.67516604099896,107.67516604099896,0.15549592228172437,0.06000171063019372,0.20541441594923962,0.08130346723776115,1.0,0.0
107.68016604099896,107.68016604099896,107.68016604099896,0.15491876941382193,0.05880540709081716,0.17020767980389664,0.08030239182701049,1.0,0.0
107.68516604099895,107.68516604099895,107.68516604099895,0.15433114054031807,0.057608224098244815,0.16973517680082356,0.07930485100384611,1.0,0.0
107.69016604099895,107.69016604099895,107.69016604099895,0.15373306395746597,0.056410278964581034,0.16925277949690287,0.07831115938117102,1.0,0.0
107.69516604099894,107.69516604099894,107.69516604099894,0.1531246194387613,0.055211692987604206,0.16876054847681157,0.07732163943099976,1.0,0.0
107.70016604099894,107.70016604099894,107.70016604099894,0.15250586142349526,0.09238692066276505,0.168258553574481,0.06593221457674714,1.0,0.0
107.70516604099893,107.70516604099893,107.70516604099893,0.1518768498181578,0.052813076602596355,0.16774685716226923,0.06479484509258439,1.0,0.0
107.71016604099893,107.71016604099893,107.71016604099893,0.15123767486046186,0.0592559616181772,0.16722552532508952,0.06407292693368179,1.0,0.0
107.71516604099892,107.71516604099892,107.71516604099892,0.15058833208683425,0.0504133344698802,0.16669462855091038,0.06294494792442523,1.0,0.0
107.72016604099892,107.72016604099892,107.72016604099892,0.14992885660312305,0.05078665803947125,0.16615423134321325,0.06189801874937084,1.0,0.0
107.72516604099891,107.72516604099891,107.72516604099891,0.14925955160602375,0.05198657314492076,0.15394759588647616,0.060978855659551634,1.0,0.0
107.73016604099891,107.73016604099891,107.73016604099891,0.14858020284275997,0.053186287546217924,0.15334592237829436,0.06019344956505879,0.9482671743243283,0.0
107.7351660409989,107.7351660409989,107.7351660409989,0.14789104039569137,0.05438568415982066,0.15273393654870276,0.05954721279045937,0.8528487582219862,0.0
107.7401660409989,107.7401660409989,107.7401660409989,0.1471920902200372,0.05558464232003531,0.15211170064761712,0.05904481232244021,0.7558321914115622,0.0
107.7451660409989,107.7451660409989,107.7451660409989,0.14648346489411967,0.05678304526720669,0.15147927878082476,0.05869001739444213,0.6572274690145045,0.0
107.75016604099889,107.75016604099889,107.75016604099889,0.14576508754771986,0.05798076242343069,0.1508367282082523,0.058485566851896854,0.5570435187726637,0.0
107.75516604099889,107.75516604099889,107.75516604099889,0.1450372424643268,0.05917769038694141,0.15018411972486778,0.05843306974692624,0.4552913787581495,0.0
107.76016604099888,107.76016604099888,107.76016604099888,0.14429980700659514,0.06037369249199203,0.14952151313982848,0.05853294215802074,0.35198037417880407,0.0
107.76516604099888,107.76516604099888,107.76516604099888,0.14355295311005395,0.06156865762893503,0.14884897456653093,0.05878439269975421,0.24712081317458015,0.0
107.77016604099887,107.77016604099887,107.77016604099887,0.1427967985668029,0.06276247290250699,0.14816657568411432,0.05918545304445527,0.14072387167406522,0.0
107.77516604099887,107.77516604099887,107.77516604099887,0.1420313296217607,0.06395500739665332,0.14747438250319142,0.05973305071408711,0.0327998417915747,0.0
107.78016604099886,107.78016604099886,107.78016604099886,0.14125665845829524,0.0651461464117293,0.14677246457217438,0.05744414398164189,0.0,0.0
107.78516604099886,107.78516604099886,107.78516604099886,0.14047291942422396,0.06633578110799651,0.14606089596601488,0.058314068649594535,0.0,0.0
107.79016604099886,107.79016604099886,107.79016604099886,0.139680020046038,0.0675237617936624,0.1453397397026152,0.05887310456555393,0.0,0.0
107.79516604099885,107.79516604099885,107.79516604099885,0.13887818731516918,0.06870999554549263,0.14460907305137263,0.060018871123212136,0.0,0.0
107.80016604099885,107.80016604099885,107.80016604099885,0.13806746249164373,0.06989435663861222,0.1438689738740161,0.06120772761138054,0.0,0.0
107.80516604099884,107.80516604099884,107.80516604099884,0.13724797693960136,0.07107673853088249,0.14311950856831576,0.06239564972937743,0.0,0.0
107.81016604099884,107.81016604099884,107.81016604099884,0.13641974798445236,0.07225700849255835,0.14236075887703506,0.06358250927719981,0.0,0.0
107.81516604099883,107.81516604099883,107.81516604099883,0.13558296734837025,0.07343507736758652,0.1415928034661354,0.0647681807111982,0.0,0.0
107.82016604099883,107.82016604099883,107.82016604099883,0.13473750827971373,0.07461077079267948,0.14081571214899916,0.06595253519513407,0.0,0.0
107.82516604099882,107.82516604099882,107.82516604099882,0.13388361172255353,0.0757840132274192,0.14002956219334664,0.06713544742239488,0.0,0.0
107.83016604099882,107.83016604099882,107.83016604099882,0.13302133464060525,0.07695467993272154,0.1392344397344679,0.06831679275717449,0.0,0.0
107.83516604099881,107.83516604099881,107.83516604099881,0.13215074278179106,0.5870976074441048,0.1384304167368172,0.16121735103368354,0.0,1.0
107.84016604099881,107.84016604099881,107.84016604099881,0.131271930792988,0.07928780058217183,0.13761757926379728,0.16172857682030248,0.0,1.0
107.8451660409988,107.8451660409988,107.8451660409988,0.13038500598588598,0.08045003031688251,0.13679600903310432,0.16224588375766388,0.0,1.0
107.8501660409988,107.8501660409988,107.8501660409988,0.12949004431209732,0.08160921603741458,0.135965785055741,0.16276911655745108,0.0,1.0
107.8551660409988,107.8551660409988,107.8551660409988,0.1285871289200598,0.08276523928962744,0.1351269926825693,0.163298118241962,0.0,1.0
107.86016604099879,107.86016604099879,107.86016604099879,0.12767629952291085,0.0839179621221744,0.13427971280223766,0.16383272923859968,0.0,1.0
107.86516604099879,107.86516604099879,107.86516604099879,0.1267577614339099,0.08506731804135494,0.13342403019045013,0.16437278961628543,0.0,1.0
107.87016604099878,107.87016604099878,107.87016604099878,0.2394947582156547,0.08621316961445945,0.1420120550624373,0.1649181379632101,0.0,1.0
107.87516604099878,107.87516604099878,107.87516604099878,0.1248976875019383,0.087355365039974,0.14119823431090867,0.16546860955734244,0.0,1.0
107.88016604099877,107.88016604099877,107.88016604099877,0.12395644987227847,0.08849388275275825,0.14037753542375236,0.16602404159040063,0.0,1.0
107.88516604099877,107.88516604099877,107.88516604099877,0.12300768487327986,0.08962848213646146,0.13955006328156488,0.16658426550586863,0.0,1.0
107.89016604099876,107.89016604099876,107.89016604099876,0.12205169495742928,0.09075915821634574,0.13871593978164068,0.16714911564040688,0.0,1.0
107.89516604099876,107.89516604099876,107.89516604099876,0.1210885000931524,0.2791870717391584,0.1378752776542717,0.18020369380721368,0.0,1.0
107.90016604099876,107.90016604099876,107.90016604099876,0.1201182015124159,0.183822640903806,0.1370282044893112,0.1850334321782817,0.0,1.0
107.90516604099875,107.90516604099875,107.90516604099875,0.11914094065296615,0.0941263199652078,0.13617484245007175,0.1855590343778994,0.0,1.0
107.91016604099875,107.91016604099875,107.91016604099875,0.6610180951956162,0.09524001952682815,0.21153422450151282,0.18608854115448278,1.0,1.0
107.91516604099874,107.91516604099874,107.91516604099874,0.32323684988892054,0.09634918040173682,0.22402091036268748,0.11690345543480327,1.0,0.0
107.92016604099874,107.92016604099874,107.92016604099874,0.11616778946378332,0.09745365644753755,0.2234989552506928,0.11775858411263194,1.0,0.0
107.92516604099873,107.92516604099873,107.92516604099873,0.11516341880596699,0.0985534545596971,0.22297574016240507,0.11861542957786203,1.0,0.0
107.93016604099873,107.93016604099873,107.93016604099873,0.11415259743355509,0.09964844992682091,0.22245140412296183,0.1194737606060502,1.0,0.0
107.93516604099872,107.93516604099872,107.93516604099872,0.11313523636123807,0.10073838434966514,0.22192608103868808,0.12033334139494035,1.0,0.0
107.94016604099872,107.94016604099872,107.94016604099872,0.11211167447142058,0.5014179948844576,0.22139991491867822,0.1724926792010953,1.0,1.0
107.94516604099871,107.94516604099871,107.94516604099871,0.11108183561117874,0.10290305223372556,0.22087304064424942,0.17309899256058284,1.0,1.0
107.95016604099871,107.95016604099871,107.95016604099871,0.11004585328999332,0.103977446520174,0.21437565625971386,0.17370786870089236,1.0,1.0
107.9551660409987,107.9551660409987,107.9551660409987,0.10900392470321084,0.10504649453364205,0.21383305041636735,0.17431913703575455,1.0,1.0
107.9601660409987,107.9601660409987,107.9601660409987,0.10795603686070886,0.10610998293231941,0.21329007238319125,0.17493262020408762,1.0,1.0
107.9651660409987,107.9651660409987,107.9651660409987,0.2221885672467937,0.1071678812354157,0.21824861805303175,0.17554814790782527,1.0,1.0
107.97016604099869,107.97016604099869,107.97016604099869,0.10584310964682914,0.1082201469752741,0.2177190701527228,0.1761655491209003,1.0,1.0
107.97516604099869,107.97516604099869,107.97516604099869,0.10477814017639996,0.10926646898602844,0.21718965357704592,0.16403935339033018,1.0,1.0
107.98016604099868,107.98016604099868,107.98016604099868,0.1037078282465163,0.11030701241756055,0.21666051515558088,0.15986701994374897,1.0,0.9558416182457032
107.98516604099868,107.98516604099868,107.98516604099868,0.10263198315634839,0.11134134320073327,0.21613179160332915,0.16055695166487483,1.0,0.9817274516523236
107.99016604099867,107.99016604099867,107.99016604099867,0.1015509409455044,0.11236961269408428,0.14159248146033282,0.16124764032851363,0.0,1.0
107.99516604099867,107.99516604099867,107.99516604099867,0.10046476257874544,0.26333696700712483,0.11895009465407286,0.17249565534612823,0.0,1.0
108.00016604099866,108.00016604099866,108.00016604099866,0.09937358703290856,0.11440744932632328,0.11799527394727813,0.17314514632220507,0.0,1.0
108.00516604099866,108.00516604099866,108.00516604099866,0.09827735715442178,0.11541663678858644,0.11703684801176686,0.173795153082757,0.0,1.0
108.01016604099866,108.01016604099866,108.01016604099866,0.09717639784702231,0.11641941531727462,0.11607498047548999,0.17444550554022253,0.0,1.0
108.01516604099865,108.01516604099865,108.01516604099865,0.0960707124204411,0.11741554307759482,0.11510984361595233,0.1750960340295017,0.0,1.0
108.02016604099865,108.02016604099865,108.02016604099865,0.09496008665842985,0.11840442703214513,0.11414158095924518,0.12578193950062624,0.0,0.0
108.02516604099864,108.02516604099864,108.02516604099864,0.09384555724950677,0.11938736882123799,0.11317039765181977,0.12668905007627648,0.0,0.0
108.03016604099864,108.03016604099864,108.03016604099864,0.3968860621133343,0.12036295088092394,0.14797150885986526,0.12759255883171064,0.1103098220278838,0.0
108.03516604099863,108.03516604099863,108.03516604099863,0.09160271799418633,0.12133118518578498,0.1472324440492529,0.1284922827430595,0.0,0.0
108.04016604099863,108.04016604099863,108.04016604099863,0.09047523511227258,0.12229284280335884,0.14649435645388623,0.12938809801218856,0.0,0.0
108.04516604099862,108.04516604099862,108.04516604099862,0.08934351943632264,0.1232469482214809,0.13738268827792177,0.1302798271972698,0.0,0.0
108.05016604099862,108.05016604099862,108.05016604099862,0.08820792422230331,0.1241938299043553,0.13660205037155257,0.1311673170915133,0.0,0.0
108.05516604099861,108.05516604099861,108.05516604099861,0.08706850054884104,0.12513328045292535,0.13582258367544983,0.13205042072064874,0.0,0.0
108.06016604099861,108.06016604099861,108.06016604099861,0.08592527496629196,0.1260650189558225,0.13504448966424387,0.13292896830070783,0.0,0.0
108.0651660409986,108.0651660409986,108.0651660409986,0.08477860548504036,0.1269894648965951,0.13426799576783932,0.13380283986729072,0.0,0.0
108.0701660409986,108.0701660409986,108.0701660409986,0.08362840930885809,0.12790611221891296,0.13349331262202166,0.13467187971853295,0.0,0.010534738512591117
108.0751660409986,108.0751660409986,108.0751660409986,0.08247477804481808,0.1288147973536842,0.1327206541787937,0.12181726499544494,0.0,0.0
108.08016604099859,108.08016604099859,108.08016604099859,0.08131800211148008,0.19616554276185305,0.13195024166280608,0.12816566245518543,0.0,0.0
108.08516604099859,108.08516604099859,108.08516604099859,0.08015803128456878,0.13060877659580467,0.13118229955107483,0.12907377856227442,0.0,0.0
108.09016604099858,108.09016604099858,108.09016604099858,0.13519490576066484,0.13149368685584462,0.13327020055446548,0.12997541941113705,0.0,0.0
108.09516604099858,108.09516604099858,108.09516604099858,0.11032639907838424,0.4295026138487286,0.13395835972464332,0.1660165353143135,0.0,1.0
108.10016604099857,108.10016604099857,108.10016604099857,0.07666053946949244,0.13323896837013444,0.13322370624616892,0.16671773569341428,0.0,1.0
108.10516604099857,108.10516604099857,108.10516604099857,0.08378406284592255,0.13409918054809794,0.13280382032036653,0.16741529587851275,0.0,1.0
108.11016604099856,108.11016604099856,108.11016604099856,0.07431532721800126,0.13495087027031458,0.09020597840035198,0.16810907882744447,0.0,1.0
108.11516604099856,108.11516604099856,108.11516604099856,0.0731390363228296,0.13579419352159344,0.0891460028958625,0.168798956721262,0.0,1.0
108.12016604099855,108.12016604099855,108.12016604099855,0.07196041796356405,0.1366288891735702,0.08808543115273655,0.169484755693333,0.0,1.0
108.12516604099855,108.12516604099855,108.12516604099855,0.7311160529385814,0.137454945746334,0.20166387711068848,0.17016634700769268,1.0,1.0
108.13016604099855,108.13016604099855,108.13016604099855,0.06959671520662067,0.13827222403571734,0.20120825252909325,0.17084358178911624,1.0,1.0
108.13516604099854,108.13516604099854,108.13516604099854,0.06841187179683217,0.13908072355900344,0.2007572281681136,0.17151632225631921,1.0,1.0
108.14016604099854,108.14016604099854,108.14016604099854,0.06722516227660572,0.13988018953591028,0.2003109308289533,0.17218443222777266,1.0,1.0
108.14516604099853,108.14516604099853,108.14516604099853,0.06603674848987065,0.14067075423747744,0.1998694799669452,0.17284776468915938,1.0,1.0
108.15016604099853,108.15016604099853,108.15016604099853,0.06484674016802229,0.14145230745698575,0.19943299833888495,0.17350619186908228,1.0,1.0
108.15516604099852,108.15516604099852,108.15516604099852,0.06365523532710082,0.14222464565440873,0.1990016069649328,0.17415958480744465,1.0,1.0
108.16016604099852,108.16016604099852,108.16016604099852,0.11021057904086037,0.14298778936118292,0.19986870494450984,0.17089279596873183,1.0,1.0
108.16516604099851,108.16516604099851,108.16516604099851,0.06126826308318286,0.1437416818714355,0.1994505699322737,0.17155039019329457,1.0,1.0
108.17016604099851,108.17016604099851,108.17016604099851,0.06007302587710613,0.14448617866174926,0.1971388443831113,0.1722023243435026,1.0,1.0
108.1751660409985,108.1751660409985,108.1751660409985,0.05887677028198569,0.14522111582310765,0.19575401387656333,0.13943522809150857,1.0,0.18925277489933945
108.1801660409985,108.1801660409985,108.1801660409985,0.05767964378052339,0.1459467142296793,0.19534652642411293,0.14022810569501531,1.0,0.21900107741646901
108.1851660409985,108.1851660409985,108.1851660409985,0.05648173461636601,0.14666253915125252,0.19473293624438742,0.1410119800308691,1.0,0.24841158261330795
108.19016604099849,108.19016604099849,108.19016604099849,0.05528318672726228,0.14736883685541885,0.19433671266145477,0.14178678819027518,1.0,0.2774819301887855
108.19516604099849,108.19516604099849,108.19516604099849,0.05408410646918012,0.14806533810931255,0.1939464968340674,0.14255244084201707,1.0,0.3062087684880671
108.20016604099848,108.20016604099848,108.20016604099848,0.052884617794597,0.14875203551373567,0.1935623896824194,0.14330886420441347,1.0,0.3345893292657572
108.20516604099848,108.20516604099848,108.20516604099848,0.051684838750456714,0.1494287545868298,0.06500145137094566,0.14405597426438702,0.0,0.3626204604004821
108.21016604099847,108.21016604099847,108.21016604099847,0.05048489417415667,0.150095646291142,0.0638885947653682,0.1447937055425666,0.0,0.3902997051446531
108.21516604099847,108.21516604099847,108.21516604099847,0.05071509917780322,0.1507524693642659,0.06284896465901565,0.14552197728987704,0.0,0.41762403384034347
108.22016604099846,108.22016604099846,108.22016604099846,0.05191502051626188,0.15139925673018215,0.06193536179530796,0.146240726522987,0.0,0.4445910833899129
108.22516604099846,108.22516604099846,108.22516604099846,0.05311475169512527,0.1520359397683611,0.06115357172110405,0.14694987822958655,0.0,0.4711980393755005
108.23016604099845,108.23016604099845,108.23016604099845,0.05431417084383354,0.15266239192835931,0.060508821047020496,0.14764935616423872,0.0,0.49744204111304313
108.23516604099845,108.23516604099845,108.23516604099845,0.055513162099497554,0.15327864088912374,0.06000562524346265,0.14833909842248316,0.0,0.5233207659835072
108.24016604099845,108.24016604099845,108.24016604099845,0.05671159872766489,0.15388448504189217,0.05515922105112393,0.14901902914622445,0.0,0.5488313678356562
108.24516604099844,108.24516604099844,108.24516604099844,0.057909365770151905,0.1544799638226143,0.05493196317612997,0.1496890787762963,0.0,0.5739712368503812
108.25016604099844,108.25016604099844,108.25016604099844,0.05910633048335035,0.15506485805357212,0.054866382648732843,0.15034917260689354,0.0,0.5987375701096991
108.25516604099843,108.25516604099843,108.25516604099843,0.06030239782435519,0.2133682060908972,0.05496306954665324,0.15534534072244865,0.0,0.7861908666470465
108.26016604099843,108.26016604099843,108.26016604099843,0.06149742862045351,0.15620333202335568,0.05522115573091278,0.15596751177880314,0.0,0.809534359665358
108.26516604099842,108.26516604099842,108.26516604099842,0.0626913076071347,0.1567566183053248,0.05563835814230499,0.1565799661274883,0.0,0.8325132875125276
108.27016604099842,108.27016604099842,108.27016604099842,0.09533452916420676,0.15729930358610342,0.05892923301754718,0.15718263054332696,0.0,0.8551249028228656
108.27516604099841,108.27516604099841,108.27516604099841,0.06507514931263209,0.15783120081138666,0.0596197096972101,0.1577754363629799,0.0,0.8773666293881695
108.28016604099841,108.28016604099841,108.28016604099841,0.06626487200001682,0.15835236777263284,0.06044956938017204,0.15835831944955145,0.0,0.899236060829742
108.2851660409984,108.2851660409984,108.2851660409984,0.06745296018992994,0.15886264297469552,0.06141304131335588,0.1589312162654244,0.0,0.9207308132534604
108.2901660409984,108.2901660409984,108.2901660409984,0.06863930260721951,0.15936203524091996,0.06250380769217431,0.15949405539437161,0.0,0.9418482071643823
108.2951660409984,108.2951660409984,108.2951660409984,0.06982376081682294,0.1598503788271529,0.06364498797348236,0.160046769705383,0.0,0.9625857238463931
108.30016604099839,108.30016604099839,108.30016604099839,0.23111028447835946,0.16032808204221272,0.08497343192977283,0.1605893160446332,0.0,0.9829417441932821
108.30516604099839,108.30516604099839,108.30516604099839,0.07218669674837419,0.1607945284037091,0.08584778989677992,0.16112161715344325,0.0,1.0
108.31016604099838,108.31016604099838,108.31016604099838,0.07336487853220947,0.16124991090307278,0.0867286950532303,0.16164361572669922,0.0,1.0
108.31516604099838,108.31516604099838,108.31516604099838,0.0745407057691962,0.16169408759170892,0.08761580564475233,0.16215524434406042,0.0,1.0
108.32016604099837,108.32016604099837,108.32016604099837,0.07571411514449354,0.16212725808639775,0.08850878917596622,0.1626564603256116,0.0,1.0
108.32516604099837,108.32516604099837,108.32516604099837,0.3182274269153564,0.16254913282580594,0.11812495840729359,0.16314720092800808,0.0,1.0
108.33016604099836,108.33016604099836,108.33016604099836,0.0780530646219333,0.16295974806352345,0.11881046233741004,0.16362741900733926,0.0,1.0
108.33516604099836,108.33516604099836,108.33516604099836,0.07921838176135887,0.16335903775633864,0.11950261194812535,0.15998888630587035,0.0,0.960413972655785
108.34016604099835,108.34016604099835,108.34016604099835,0.08038081021285652,0.16374711915347231,0.12020116709144694,0.16045964016656689,0.0,0.9780763813266437
108.34516604099835,108.34516604099835,108.34516604099835,0.0815400384024368,0.3325364813771174,0.12090587944128112,0.1764165192134616,0.0,1.0
108.35016604099835,108.35016604099835,108.35016604099835,0.08269639060303977,0.16448893862223496,0.12032293201612775,0.17682585925895689,0.0,1.0
108.35516604099834,108.35516604099834,108.35516604099834,0.08384930445168115,0.16484259269279344,0.12104690679192626,0.1772252353043319,0.0,1.0
108.36016604099834,108.36016604099834,108.36016604099834,0.08499885663539869,0.16518484409693343,0.12177628840173459,0.17761459413554356,0.0,1.0
108.36516604099833,108.36516604099833,108.36516604099833,0.08614494427193081,0.16551569161135657,0.12251083632062634,0.17799389203628976,0.0,1.0
108.37016604099833,108.37016604099833,108.37016604099833,0.08728739482200906,0.16583491172894674,0.1232503082369565,0.17836307236008125,0.0,1.0
108.37516604099832,108.37516604099832,108.37516604099832,0.08842604378814821,0.34305263885289733,0.12399446140188461,0.19383419762782983,0.0,1.0
108.38016604099832,108.38016604099832,108.38016604099832,0.08956098659931955,0.1664385401242377,0.11197187985786612,0.1941558382568862,0.0,1.0
108.38516604099831,108.38516604099831,108.38516604099831,0.0906918931359862,0.612709987646481,0.11280994259029704,0.2440161983692023,0.0,1.0
108.39016604099831,108.39016604099831,108.39016604099831,0.09181874860408064,0.16699557681692534,0.11365122292258655,0.24425760862958482,0.0,1.0
108.3951660409983,108.3951660409983,108.3951660409983,0.09294140208502263,0.16725652937066293,0.11449546796537172,0.24449159477246082,0.0,1.0
108.4001660409983,108.4001660409983,108.4001660409983,0.09405977237577655,0.16750578704792835,0.11534242728204479,0.24471810051440204,0.0,1.0
108.4051660409983,108.4051660409983,108.4051660409983,0.09517367149269308,0.16774312469086314,0.08683725475179532,0.244937072889225,0.0,1.0
108.41016604099829,108.41016604099829,108.41016604099829,0.09628313561864092,0.16796890485450428,0.08797354087768844,0.24514847392929032,0.0,1.0
108.41516604099829,108.41516604099829,108.41516604099829,0.09738796349453065,0.16818286656297493,0.08910610449684997,0.24535225820573028,0.0,1.0
108.42016604099828,108.42016604099828,108.42016604099828,0.2975736420418809,0.1683849218019249,0.11432611346638258,0.2455483725976412,0.0,1.0
108.42516604099828,108.42516604099828,108.42516604099828,0.5776896129848738,0.16857532378937046,0.18306485780543622,0.23485915738342222,1.0,1.0
108.43016604099827,108.43016604099827,108.43016604099827,0.10067358026485795,0.16875377030453742,0.183626719079388,0.23504818721016346,1.0,1.0
108.43516604099827,108.43516604099827,108.43516604099827,0.10175870606339983,0.16892013448780926,0.18419155785493302,0.2352290554494494,1.0,1.0
108.44016604099826,108.44016604099826,108.44016604099826,0.10283880185227828,0.1690749427987549,0.1847592171749358,0.2354017364004188,1.0,1.0
108.44516604099826,108.44516604099826,108.44516604099826,0.10391358814678885,0.7663621023568266,0.18532953347946324,0.3006803813608091,1.0,1.0
108.45016604099825,108.45016604099825,108.45016604099825,0.10498287840561164,0.1693484665311593,0.1859023418254464,0.30080275440610715,1.0,1.0
108.45516604099825,108.45516604099825,108.45516604099825,0.10604665782510635,0.16946719644258657,0.18647748180993826,0.291413663305595,1.0,1.0
108.46016604099825,108.46016604099825,108.46016604099825,0.10710502826208076,0.1695743947355642,0.18705479416356707,0.29152663453471883,1.0,1.0
108.46516604099824,108.46516604099824,108.46516604099824,0.10815758339528438,0.16966941125803076,0.187634115314638,0.25164193788560074,1.0,1.0
108.47016604099824,108.47016604099824,108.47016604099824,0.10920427832161107,0.16975236994642673,0.18821528090975945,0.25175719737367236,1.0,1.0
108.47516604099823,108.47516604099823,108.47516604099823,0.11024508193240672,0.16982341331968234,0.1887981305117631,0.25186457521423683,1.0,1.0
108.48016604099823,108.48016604099823,108.48016604099823,0.11127982010341383,0.1698823944396768,0.18938250033639806,0.25196404346795936,1.0,1.0
108.48516604099822,108.48516604099822,108.48516604099822,0.11230850745667252,0.16992953889882462,0.18996823353530706,0.252055594006671,1.0,1.0
108.49016604099822,108.49016604099822,108.49016604099822,0.11333097366708636,0.16996470627328347,0.19055516645911422,0.2521391986459853,1.0,1.0
108.49516604099821,108.49516604099821,108.49516604099821,0.1143470524982191,0.1699877734590983,0.191143136224138,0.25221483580740206,1.0,1.0
108.50016604099821,108.50016604099821,108.50016604099821,0.25629727793879264,0.16999871809998898,0.18736818677578967,0.2522824875867174,1.0,1.0
108.5051660409982,108.5051660409982,108.5051660409982,0.11635985428039783,0.16999800113835722,0.12286265843104484,0.25234214586640863,0.0,1.0
108.5101660409982,108.5101660409982,108.5101660409982,0.11735631948497825,0.1699850574063296,0.12378435415764713,0.2523937922717269,0.0,1.0
108.5151660409982,108.5151660409982,108.5151660409982,0.118345981222771,0.16995999703355247,0.12470264591205954,0.252437419323226,0.0,1.0
108.52016604099819,108.52016604099819,108.52016604099819,0.11932893993617448,0.16992317290340592,0.12561736919594735,0.25247301331036875,0.0,1.0
108.52516604099819,108.52516604099819,108.52516604099819,0.1203049106112118,0.16987425971950504,0.12652835967062043,0.1698212941938446,0.0,1.0
108.53016604099818,108.53016604099818,108.53016604099818,0.12127389380522802,0.16981343177324393,0.12743546537742165,0.1698503109139243,0.0,1.0
108.53516604099818,108.53516604099818,108.53516604099818,0.2852216867975661,0.16974055749714073,0.1436015064247095,0.1698673703345933,0.0,1.0
108.54016604099817,108.54016604099817,108.54016604099817,0.1231902539359253,0.1696556260142221,0.14440538293829952,0.16987243967139404,0.0,1.0
108.54516604099817,108.54516604099817,108.54516604099817,0.7841420624481674,0.16955890005618124,0.24197460419425587,0.16986554308301424,1.0,1.0
108.55016604099816,108.55016604099816,108.55016604099816,0.12507745808956366,0.16945015437135516,0.24245439536615326,0.16984668294969832,1.0,1.0
108.55516604099816,108.55516604099816,108.55516604099816,0.12600980072515916,0.1693294232742843,0.242933971624285,0.16981585490228443,1.0,1.0
108.56016604099815,108.56016604099815,108.56016604099815,0.12693456163985453,0.16919678978595298,0.24341320548642645,0.16977306893181215,1.0,1.0
108.56516604099815,108.56516604099815,108.56516604099815,0.12785165148452568,0.16905227076923451,0.24389196655781473,0.16971832197318168,1.0,1.0
108.57016604099815,108.57016604099815,108.57016604099815,0.128760914752273,0.16889578287397713,0.24437012465706143,0.16965161454955474,1.0,1.0
108.57516604099814,108.57516604099814,108.57516604099814,0.12966222826779472,0.1687272963672866,0.24484755081260043,0.1695729530545341,1.0,1.0
108.58016604099814,108.58016604099814,108.58016604099814,0.13055580183918633,0.17921692955273438,0.23855839077387075,0.17016516355530031,1.0,1.0
108.58516604099813,108.58516604099813,108.58516604099813,0.13144114103293286,0.1683551308917393,0.2390474391734025,0.1700630500563268,1.0,1.0
108.59016604099813,108.59016604099813,108.59016604099813,0.1323184279249317,0.16815128617430466,0.23953529377881486,0.16994907163839026,1.0,1.0
108.59516604099812,108.59516604099812,108.59516604099812,0.13318724861658934,0.16793529270564575,0.24002181975990836,0.1698232266866964,1.0,1.0
108.60016604099812,108.60016604099812,108.60016604099812,0.1340480755870964,0.16770796645683406,0.24050689621558147,0.1696855419739744,1.0,1.0
108.60516604099811,108.60516604099811,108.60516604099811,0.13490023399574214,0.16746849994164098,0.24099038824854793,0.16953601476483476,1.0,1.0
108.61016604099811,108.61016604099811,108.61016604099811,0.2892346663957842,0.16721763358827463,0.24977129671178352,0.1693746771601596,1.0,1.0
108.6151660409981,108.6151660409981,108.6151660409981,0.13657935435390514,0.16695484784910244,0.2417997260122328,0.16920153748019873,1.0,1.0
108.6201660409981,108.6201660409981,108.6201660409981,0.13740593776681315,0.16668042038242928,0.24227802637959053,0.1690166219028463,1.0,1.0
108.6251660409981,108.6251660409981,108.6251660409981,0.1382236632417372,0.16639416929483775,0.14650197951771263,0.16881992896616432,0.0,1.0
108.63016604099809,108.63016604099809,108.63016604099809,0.13903267723645907,0.16609642652950027,0.14728607258901033,0.16861149181395635,0.003439302905374712,1.0
108.63516604099809,108.63516604099809,108.63516604099809,0.13983281406081816,0.16578710691416101,0.14806369846887196,0.16839133624911712,0.12468366215157371,1.0
108.64016604099808,108.64016604099808,108.64016604099808,0.14062389835244854,0.16546611932503436,0.14883473190036034,0.16815947731075592,0.24490015285638472,1.0
108.64516604099808,108.64516604099808,108.64516604099808,0.1414059346091035,0.1651336038993871,0.14959905419841976,0.16791593764354815,0.3640702701141672,1.0
108.65016604099807,108.65016604099807,108.65016604099807,0.14217887520553557,0.1647896313781306,0.15035655366076017,0.16766074953841273,0.482176597744551,1.0
108.65516604099807,108.65516604099807,108.65516604099807,0.14294252182473602,0.16443408510082835,0.15110711489827802,0.16739394007401562,0.5992011447337514,1.0
108.66016604099806,108.66016604099806,108.66016604099806,0.14369690758893075,0.16406713762121103,0.15185061463138105,0.1664202167302995,0.7151246898141146,1.0
108.66516604099806,108.66516604099806,108.66516604099806,0.14444199656617654,0.16368887127657777,0.15258695542190753,0.16612901858705764,0.8299320408118828,1.0
108.67016604099805,108.67016604099805,108.67016604099805,0.1451775320465833,0.16329910411413762,0.15331601614016196,0.16582621841659836,0.943604311662823,1.0
108.67516604099805,108.67516604099805,108.67516604099805,0.29966210510195246,0.1628980636034904,0.16736026763421233,0.16551187117908378,1.0,1.0
108.68016604099805,108.68016604099805,108.68016604099805,0.14662008456490452,0.16248574939167107,0.1680178393710655,0.16518598017868988,1.0,1.0
108.68516604099804,108.68516604099804,108.68516604099804,0.14732692837820757,0.16206220650183853,0.16866888054780405,0.16484860271341656,1.0,1.0
108.69016604099804,108.69016604099804,108.69016604099804,0.14802387023937144,0.1616272640795629,0.15681227514124013,0.1644997387110455,1.0,1.0
108.69516604099803,108.69516604099803,108.69516604099803,0.1487113284041403,0.16118152108975226,0.1575005105784475,0.16413945787358022,1.0,1.0
108.70016604099803,108.70016604099803,108.70016604099803,0.5072717989690849,0.160724323205314,0.19927162047305255,0.16376777224691294,1.0,1.0
108.70516604099802,108.70516604099802,108.70516604099802,0.15005618547220864,0.1602562967195642,0.19980583345679084,0.16338474391188157,1.0,1.0
108.71016604099802,108.71016604099802,108.71016604099802,0.1507136379745675,0.1597771218026501,0.20033447853929767,0.16299039435578846,1.0,1.0
108.71516604099801,108.71516604099801,108.71516604099801,0.32113566783515357,0.1592869248541816,0.21297261472040832,0.16258475828906546,1.0,1.0
108.72016604099801,108.72016604099801,108.72016604099801,0.15199815650493861,0.1587857739854375,0.21346043437933349,0.16216788049392852,1.0,1.0
108.725166040998,108.725166040998,108.725166040998,0.15262534904258868,0.1582739714848659,0.21394283283658946,0.1617398154318924,1.0,1.0
108.730166040998,108.730166040998,108.730166040998,0.15324214334621275,0.1577511969166451,0.21441969555887172,0.16130059358500043,1.0,1.0
108.735166040998,108.735166040998,108.735166040998,0.15384858248266,0.15721761512061183,0.21489091931769366,0.16085026305838804,1.0,0.992732323056637
108.74016604099799,108.74016604099799,108.74016604099799,0.6032465123717885,0.15667331340298118,0.26006096265123124,0.16038886641158526,1.0,0.9754209915613697
108.74516604099799,108.74516604099799,108.74516604099799,0.15503033113445444,0.15611842814779006,0.26044171395930854,0.15991644938221453,1.0,0.9576961817776051
108.75016604099798,108.75016604099798,108.75016604099798,0.1556054422670326,0.155552850874783,0.2608177907770311,0.15943306286240916,1.0,0.9395598031483274
108.75516604099798,108.75516604099798,108.75516604099798,0.15616992064030633,0.44496022877436725,0.25285944547461103,0.19009146657007533,1.0,1.0
108.76016604099797,108.76016604099797,108.76016604099797,0.15672394480107812,0.154390107671966,0.2532379479274182,0.18966927419784244,1.0,1.0
108.76516604099797,108.76516604099797,108.76516604099797,0.1572672826951553,0.15379311394336706,0.25361130528684994,0.1892384574280447,1.0,1.0
108.77016604099796,108.77016604099796,108.77016604099796,0.15779971717435878,0.15318557075220818,0.25397942722891725,0.18879909078647092,1.0,1.0
108.77516604099796,108.77516604099796,108.77516604099796,0.15832165076585147,0.15256797583159795,0.2543422248165307,0.18835124293081298,1.0,1.0
108.78016604099795,108.78016604099795,108.78016604099795,0.15883256097418255,0.15193994195313149,0.22401765856599448,0.1878949988205229,1.0,1.0
108.78516604099795,108.78516604099795,108.78516604099795,0.1593326658032834,0.15130178693814333,0.2244176660247248,0.18743042699236348,1.0,1.0
108.79016604099795,108.79016604099795,108.79016604099795,0.15982148896959603,0.15065318205414532,0.22481116087294917,0.18695759746733612,1.0,1.0
108.79516604099794,108.79516604099794,108.79516604099794,0.16029980453781464,0.14999494752471162,0.21377687536126597,0.18647661580369382,1.0,1.0
108.80016604099794,108.80016604099794,108.80016604099794,0.16076707779335994,0.14932669941911308,0.21417741663585477,0.18598756561340782,1.0,1.0
108.80516604099793,108.80516604099793,108.80516604099793,0.16122295506280063,0.14864823238483724,0.21457076292241944,0.1854905051388027,1.0,1.0
108.81016604099793,108.81016604099793,108.81016604099793,0.16166801041328757,0.14796016752644783,0.21495685437887818,0.18498554183236043,1.0,1.0
108.81516604099792,108.81516604099792,108.81516604099792,0.16210175694716478,0.14726218045882988,0.21533560742258084,0.18447275921553222,1.0,1.0
108.82016604099792,108.82016604099792,108.82016604099792,0.16252421357992075,0.14655439908628787,0.1589847764913112,0.18395224363954185,1.0,1.0
108.82516604099791,108.82516604099791,108.82516604099791,0.16293546747818613,0.1458370062767037,0.15947807637073336,0.18342408440427685,1.0,1.0
108.83016604099791,108.83016604099791,108.83016604099791,0.1633354104265944,0.1451100156151785,0.1599604466975072,0.18288837836391517,1.0,1.0
108.8351660409979,108.8351660409979,108.8351660409979,0.16372430403827087,0.14437375095075472,0.160431861654464,0.14958791683780284,1.0,0.5701757002679214
108.8401660409979,108.8401660409979,108.8401660409979,0.16410141407376544,0.14362770733993233,0.16089223780407946,0.1489163630177059,1.0,0.5449793949259352
108.8451660409979,108.8451660409979,108.8451660409979,0.16446741371874432,0.14287254730161436,0.16134154899984032,0.14823494309431423,1.0,0.5194129191765896
108.85016604099789,108.85016604099789,108.85016604099789,0.16482192300958826,0.1421080630111943,0.1617797581789354,0.14754373422669187,1.0,0.4934791679826985
108.85516604099789,108.85516604099789,108.85516604099789,0.1651648287014778,0.14133427034275278,0.16220679664430704,0.14684278261053432,1.0,0.4671798745796552
108.86016604099788,108.86016604099788,108.86016604099788,0.16549613132629978,0.14055127719763583,0.16262262778824702,0.14613216629947529,1.0,0.4405179674940036
108.86516604099788,108.86516604099788,108.86516604099788,0.16581614394366762,0.1397594324550316,0.16302722171090822,0.14541196405976994,1.0,0.4134964019894275
108.87016604099787,108.87016604099787,108.87016604099787,0.16612426576559558,0.13895837263205293,0.16342053949093682,0.1446822545980126,1.0,0.38611813109116916
108.87516604099787,108.87516604099787,108.87516604099787,0.16642113010429133,0.13814868931096227,0.163802535246419,0.14394309917559917,1.0,0.358385453290863
108.88016604099786,108.88016604099786,108.88016604099786,0.16670595083310283,0.13732988729259987,0.16417314594495616,0.1431945546251703,1.0,0.3303005009158435
108.88516604099786,108.88516604099786,108.88516604099786,0.16697938934063997,0.13650256979062625,0.1645323723497927,0.14243672765414173,1.0,0.30186727756574483
108.89016604099785,108.89016604099785,108.89016604099785,0.16724119124847794,0.13566664587429272,0.164880163921413,0.14166967957749652,1.0,0.27308808374276017
108.89516604099785,108.89516604099785,108.89516604099785,0.16749119536811705,0.13482210000900569,0.16521648983162127,0.14089349227403963,1.0,0.24396599149161485
108.90016604099785,108.90016604099785,108.90016604099785,0.16772939385510766,0.1339690310323018,0.16554131768227562,0.14010824565915742,1.0,0.2145039991907193
108.90516604099784,108.90516604099784,108.90516604099784,0.1679557558064472,0.19289943306518428,0.16585460784711512,0.14361991655584083,1.0,0.3462598310027218
108.91016604099784,108.91016604099784,108.91016604099784,0.16817039661670793,0.2393819319561764,0.16615633472443245,0.15130137136261793,1.0,0.634463508787298
108.91516604099783,108.91516604099783,108.91516604099783,0.16837309689812185,0.1313596750765521,0.16644644279977314,0.15055839064378973,1.0,0.6065873081097395
108.92016604099783,108.92016604099783,108.92016604099783,0.16856412120827574,0.130473573703913,0.16672493851942172,0.14980814793664282,1.0,0.5784386418909355
108.92516604099782,108.92516604099782,108.92516604099782,0.1687433969500078,0.1295794968640372,0.16699178232546627,0.14905074225041576,1.0,0.5500212248994298
108.93016604099782,108.93016604099782,108.93016604099782,0.16891070178988518,0.12867739551143106,0.16724694404950038,0.14828628366887345,1.0,0.5213391874134977
108.93516604099781,108.93516604099781,108.93516604099781,0.16906597706874124,0.2712511253310397,0.16749039686362752,0.15918207888477245,1.0,0.9301430315549983
108.94016604099781,108.94016604099781,108.94016604099781,0.169209420278511,0.6725881293997656,0.16772212642708792,0.22886173201532023,1.0,1.0
108.9451660409978,108.9451660409978,108.9451660409978,0.16934083308387687,0.1259240061938878,0.16794208660442655,0.22835926115342378,1.0,1.0
108.9501660409978,108.9501660409978,108.9501660409978,0.16946060262639706,0.21943433384429234,0.1681502927842981,0.23227263506730372,1.0,1.0
108.9551660409978,108.9551660409978,108.9551660409978,0.16956823155387565,0.12405048483817425,0.16834668990327709,0.23177476869365965,1.0,1.0
108.96016604099779,108.96016604099779,108.96016604099779,0.16966403269911096,0.12310258723548184,0.16853129122858723,0.23127465321132012,1.0,1.0
108.96516604099779,108.96516604099779,108.96516604099779,0.16974762248323436,0.12214723015973987,0.16870404501021452,0.2307724038100789,1.0,1.0
108.97016604099778,108.97016604099778,108.97016604099778,0.1698195854226678,0.12118486760361345,0.16886495203043403,0.23026815497070996,1.0,1.0
108.97516604099778,108.97516604099778,108.97516604099778,0.169879381642443,0.47448428456758596,0.16901398909728424,0.25682351780315676,1.0,1.0
108.98016604099777,108.98016604099777,108.98016604099777,0.16992683918860574,0.11923845795712411,0.1691511227576651,0.25636926704083424,1.0,1.0
108.98516604099777,108.98516604099777,108.98516604099777,0.16996280453748955,0.1182550074951747,0.16927637466222825,0.2535223452737558,1.0,1.0
108.99016604099776,108.99016604099776,108.99016604099776,0.16998675598298957,0.11726471881917733,0.16938972652067638,0.24809582042307218,1.0,1.0
108.99516604099776,108.99516604099776,108.99516604099776,0.16999851591384263,0.11626759477013122,0.16949116253986468,0.24762463618597336,1.0,1.0
109.00016604099775,109.00016604099775,109.00016604099775,0.16999817024844519,0.11526378714488127,0.16958065591978244,0.24715250281097711,1.0,1.0
109.00516604099775,109.00516604099775,109.00516604099775,0.16998616514579154,0.11425363795278971,0.16965821231996162,0.24667954948039253,1.0,1.0
109.01016604099775,109.01016604099775,109.01016604099775,0.1699620016560764,0.11323697594386195,0.16972381995271602,0.24620590248749322,1.0,1.0
109.01516604099774,109.01516604099774,109.01516604099774,0.16992547763579327,0.11221380071897896,0.1697774580695667,0.23833960890834685,1.0,1.0
109.02016604099774,109.02016604099774,109.02016604099774,0.16987757592145242,0.1111847236888235,0.16981915513035015,0.1711869514897426,1.0,1.0
109.02516604099773,109.02516604099773,109.02516604099773,0.16981739558872266,0.11014937724947442,0.16984889558111094,0.17050578944315803,1.0,1.0
109.03016604099773,109.03016604099773,109.03016604099773,0.16974512039003128,0.10910796035613599,0.1698666512546854,0.16372780534349157,1.0,1.0
109.03516604099772,109.03516604099772,109.03516604099772,0.16966114817732653,0.10806076935023032,0.16987244983079117,0.16301788915743226,1.0,1.0
109.04016604099772,109.04016604099772,109.04016604099772,0.16956508309095003,0.10700770928492126,0.1698662747568198,0.16230636883450053,1.0,1.0
109.04516604099771,109.04516604099771,109.04516604099771,0.16945686865169562,0.1868037620419712,0.16984812991881115,0.16610791249689005,1.0,1.0
109.05016604099771,109.05016604099771,109.05016604099771,0.16933694167600416,0.10488452113015594,0.1698180099425804,0.1654131962960083,1.0,1.0
109.0551660409977,109.0551660409977,109.0551660409977,0.5658914245526766,0.10381467979098193,0.2169079015516684,0.1181700468552307,1.0,0.0
109.0601660409977,109.0601660409977,109.0601660409977,0.36598694639995744,0.10273943354376883,0.23155127919471036,0.11719752048603149,1.0,0.0
109.0651660409977,109.0651660409977,109.0651660409977,0.1689054740044175,0.12134096035974981,0.23150291879500615,0.11739450657732108,1.0,0.0
109.07016604099769,109.07016604099769,109.07016604099769,0.1687378275784076,0.10057326353146093,0.23144580626682018,0.11642258421644157,1.0,0.0
109.07516604099769,109.07516604099769,109.07516604099769,0.16855827851443764,0.09948251537744762,0.23137996046260373,0.11544644513862898,1.0,0.0
109.08016604099768,109.08016604099768,109.08016604099768,0.16836674850054725,0.09838676837926945,0.23130539360492172,0.11446624029803477,1.0,0.0
109.08516604099768,109.08516604099768,109.08516604099768,0.16816367189353504,0.09728630141357548,0.23122211804553167,0.11348211680281528,1.0,0.0
109.09016604099767,109.09016604099767,109.09016604099767,0.1679486867405516,0.09618106746895638,0.23113015345070245,0.11249423273087218,1.0,0.0
109.09516604099767,109.09516604099767,109.09516604099767,0.1677217321757042,0.09507114777026882,0.23102952690627426,0.11150275344971299,1.0,0.0
109.10016604099766,109.10016604099766,109.10016604099766,0.16748322167755847,0.09395680437843305,0.23092023996164993,0.11050782289535174,1.0,0.0
109.10516604099766,109.10516604099766,109.10516604099766,0.16723293133540537,0.09283805209176832,0.23080232628020014,0.10950961183409702,1.0,0.0
109.11016604099765,109.11016604099765,109.11016604099765,0.16697078667933613,0.0917149685101586,0.23067580859966136,0.10850828591074765,1.0,0.0
109.11516604099765,109.11516604099765,109.11516604099765,0.16669697239398193,0.09058772448556365,0.23054070060596035,0.10750400449969458,1.0,0.0
109.12016604099765,109.12016604099765,109.12016604099765,0.1664116780723079,0.08945648667343568,0.23039704362379976,0.10649694505509125,1.0,0.0
109.12516604099764,109.12516604099764,109.12516604099764,0.16611462470246416,0.08832126202319265,0.23024486986361337,0.09822505685586609,1.0,0.0
109.13016604099764,109.13016604099764,109.13016604099764,0.16580592187846005,0.0871821927147335,0.23008419729117366,0.09713732568613134,1.0,0.0
109.13516604099763,109.13516604099763,109.13516604099763,0.1654855252684532,0.08603937013676724,0.1861068510595959,0.09604551204269136,1.0,0.0
109.14016604099763,109.14016604099763,109.14016604099763,0.1651535877473808,0.08489294811123813,0.1672388678641579,0.09494974577730818,1.0,0.0
109.14516604099762,109.14516604099762,109.14516604099762,0.16481039217383872,0.08374311494753106,0.16698331297834856,0.09237713062864107,1.0,0.0
109.15016604099762,109.15016604099762,109.15016604099762,0.1644556670652156,0.5691003141769432,0.1667160836920036,0.16776038240408234,1.0,1.0
109.15516604099761,109.15516604099761,109.15516604099761,0.16408947441992205,0.08143340104760181,0.16643720725570238,0.16715101001979066,1.0,1.0
109.16016604099761,109.16016604099761,109.16016604099761,0.16371184406765715,0.08027375863444265,0.16614671777389786,0.16654490433201552,1.0,1.0
109.1651660409976,109.1651660409976,109.1651660409976,0.16332261784157404,0.07911103063850644,0.165844612172535,0.1659422364237999,1.0,1.0
109.1701660409976,109.1701660409976,109.1701660409976,0.16292229811089304,0.07794545393911095,0.16553094122217668,0.16534318653176017,1.0,1.0
109.1751660409976,109.1751660409976,109.1751660409976,0.1625107015549465,0.07677708551676125,0.16520574836893875,0.16474793379616987,1.0,1.0
109.18016604099759,109.18016604099759,109.18016604099759,0.16208768432298792,0.07560599946932642,0.16486904207808997,0.16415665024384166,1.0,1.0
109.18516604099759,109.18516604099759,109.18516604099759,0.16165369566747292,0.07443240684485505,0.1645208726446039,0.16356951358309935,1.0,1.0
109.19016604099758,109.19016604099758,109.19016604099758,0.16120838649958127,0.07325633608935833,0.16416127376100187,0.16298669955501835,1.0,1.0
109.19516604099758,109.19516604099758,109.19516604099758,0.16075201235738878,0.07207795128125807,0.16379028315901858,0.1624083824312257,1.0,1.0
109.20016604099757,109.20016604099757,109.20016604099757,0.1602844999921665,0.07089734625229448,0.16340792209526614,0.16183473314629096,1.0,1.0
109.20516604099757,109.20516604099757,109.20516604099757,0.15980606326188387,0.06971467065058862,0.16301424273876766,0.1612659262714558,1.0,1.0
109.21016604099756,109.21016604099756,109.21016604099756,0.15931650892310462,0.06852999896549776,0.16260927857455226,0.1607021331630962,1.0,0.9871745762903231
109.21516604099756,109.21516604099756,109.21516604099756,0.15881609699022534,0.06734348743118929,0.1621930819360089,0.16014352580899407,1.0,0.9662159560888861
109.22016604099755,109.22016604099755,109.22016604099755,0.2869253730964176,0.06615523510826492,0.17247391024208217,0.15959027308818582,1.0,0.9454582385871723
109.22516604099755,109.22516604099755,109.22516604099755,0.1577825057919422,0.06496535560044647,0.172062642879089,0.1590425399769203,1.0,0.92490761359725
109.23016604099755,109.23016604099755,109.23016604099755,0.1572498088872208,0.06377402533040664,0.17164110178614583,0.07284591231990675,1.0,0.0
109.23516604099754,109.23516604099754,109.23516604099754,0.1567059587986523,0.06258126266746025,0.17120931762490904,0.0716717546781797,1.0,0.0
109.24016604099754,109.24016604099754,109.24016604099754,0.15615174397254605,0.061387279411168706,0.17076736484231744,0.07049555324920807,1.0,0.0
109.24516604099753,109.24516604099753,109.24516604099753,0.15558692813679767,0.060192156630781736,0.17031531438618613,0.06931743512537483,1.0,0.0
109.25016604099753,109.25016604099753,109.25016604099753,0.15501124670194916,0.05899598623859233,0.16985319256894404,0.06813751793260582,1.0,0.0
109.25516604099752,109.25516604099752,109.25516604099752,0.15442543002796186,0.05779894787919463,0.16938107880848965,0.06695592725617756,1.0,0.0
109.26016604099752,109.26016604099752,109.26016604099752,0.15382901854374373,0.05660111644090374,0.16889903553421115,0.06577278993928341,1.0,0.0
109.26516604099751,109.26516604099751,109.26516604099751,0.15322211627878107,0.05540261908893671,0.1684071047462413,0.06458822713716361,1.0,0.0
109.27016604099751,109.27016604099751,109.27016604099751,0.15260500387953255,0.05420358791903859,0.1679053658678486,0.0634023676221999,1.0,0.0
109.2751660409975,109.2751660409975,109.2751660409975,0.15197767451417793,0.053004137674602186,0.1673938832270397,0.06221533727272063,1.0,0.0
109.2801660409975,109.2801660409975,109.2801660409975,0.1513398864439047,0.369598086946652,0.16687271244880783,0.10997394101568486,1.0,0.0
109.2851660409975,109.2851660409975,109.2851660409975,0.1506923923782811,0.05060445098929865,0.16634193958263138,0.10931861643732897,1.0,0.0
109.29016604099749,109.29016604099749,109.29016604099749,0.15003456875294313,0.05059554335404356,0.16580162763661743,0.10870617123852415,1.0,0.0
109.29516604099749,109.29516604099749,109.29516604099749,0.14936682904356519,0.0780530193579147,0.16525184805822626,0.1091528845178065,1.0,0.0
109.30016604099748,109.30016604099748,109.30016604099748,0.1486889414808035,0.13092509503215127,0.1534423760281667,0.11274819858701449,0.9633058468770097,0.0
109.30516604099748,109.30516604099748,109.30516604099748,0.14800150459150202,0.05419469008715621,0.15283204228950015,0.11239191128569377,0.8681450182737593,0.0
109.31016604099747,109.31016604099747,109.31016604099747,0.7062473447749835,0.055393727012679354,0.23018741549180094,0.11211389472449769,1.0,0.0
109.31516604099747,109.31516604099747,109.31516604099747,0.14659693083465763,0.11792053558625991,0.22977078831683767,0.11486438866132226,1.0,0.0
109.32016604099746,109.32016604099746,109.32016604099746,0.645280085729214,0.30633415209843173,0.2780194310332565,0.13719818220119323,1.0,0.10532012552764312
109.32516604099746,109.32516604099746,109.32516604099746,0.14515373860577388,0.058987113500261784,0.277666524375135,0.13716546646027045,1.0,0.10409265012193286
109.33016604099745,109.33016604099745,109.33016604099745,0.14441787663604996,0.060183275979740124,0.2773093057202836,0.13719770026853734,1.0,0.10530204369713486
109.33516604099745,109.33516604099745,109.33516604099745,0.4004710322835838,0.17706753352628624,0.29229020797873234,0.1434362960508835,1.0,0.33937049738343505
109.34016604099745,109.34016604099745,109.34016604099745,0.14291783944460024,0.0625724202058254,0.29194382943999164,0.14359125099235784,1.0,0.3451843158783892
109.34516604099744,109.34516604099744,109.34516604099744,0.1421537566655283,0.06376515282185682,0.29159366702512646,0.14380796707269164,1.0,0.35331537606924707
109.35016604099744,109.35016604099744,109.35016604099744,0.1413807103317727,0.06495654744305394,0.2912398157480586,0.14408613448422755,1.0,0.3637520541544628
109.35516604099743,109.35516604099743,109.35516604099743,0.14059830256749817,0.06614641129403076,0.2908823595508086,0.14442535605074716,1.0,0.3764794483153374
109.36016604099743,109.36016604099743,109.36016604099743,0.5021176677132517,0.0673346731831069,0.3145452217653365,0.11226924886857162,1.0,0.0
109.36516604099742,109.36516604099742,109.36516604099742,0.13900642875312694,0.06852117944287928,0.31420870200796513,0.11286177647805723,1.0,0.0
109.37016604099742,109.37016604099742,109.37016604099742,0.13819723376888604,0.06970587245253837,0.31386918436278655,0.11349655531215636,1.0,0.0
109.37516604099741,109.37516604099741,109.37516604099741,0.13737906341343983,0.07088856020604938,0.3135267528185193,0.11320236393865787,1.0,0.0
109.38016604099741,109.38016604099741,109.38016604099741,0.13655227987418433,0.07206918930008169,0.31318150882784357,0.10985473099678011,1.0,0.0
109.3851660409974,109.3851660409974,109.3851660409974,0.13571669315365234,0.07324757311561991,0.3128335315093885,0.11054329844332601,1.0,0.0
109.3901660409974,109.3901660409974,109.3901660409974,0.36061266684851523,0.07442369493366438,0.27352939495555734,0.11123948115072156,1.0,0.0
109.3951660409974,109.3951660409974,109.3951660409974,0.5096491615629233,0.07559731540587128,0.2995146997882263,0.10891431725516285,1.0,0.0
109.40016604099739,109.40016604099739,109.40016604099739,0.13315920408936938,0.0767684043067164,0.25454492123477857,0.07978487920984252,1.0,0.0
109.40516604099739,109.40516604099739,109.40516604099739,0.13228996008870136,0.07793681916951471,0.2541063872342339,0.08079476291491432,1.0,0.0
109.41016604099738,109.41016604099738,109.41016604099738,0.5052499698196765,0.07910243701465204,0.2814629089065811,0.08180765102728736,1.0,0.0
109.41516604099738,109.41516604099738,109.41516604099738,0.1305267430068024,0.08026510578205139,0.26507099147965935,0.07166303267844946,1.0,0.0
109.42016604099737,109.42016604099737,109.42016604099737,0.4888816528690428,0.08142475662623816,0.28969616088073735,0.07283720171724921,1.0,0.0
109.42516604099737,109.42516604099737,109.42516604099737,0.12873145475461314,0.08258133880044219,0.28930368418991464,0.07400920975952362,1.0,0.0
109.43016604099736,109.43016604099736,109.43016604099736,0.12782180015387998,0.08373456053869556,0.28890913951387764,0.07517892558779081,1.0,0.0
109.43516604099736,109.43516604099736,109.43516604099736,0.12690452713504777,0.08488447810334578,0.2885126438560466,0.07634623457330415,1.0,0.0
109.44016604099735,109.44016604099735,109.44016604099735,0.12597943413209428,0.0860308479104126,0.26167506045563255,0.07751101095806504,1.0,0.0
109.44516604099735,109.44516604099735,109.44516604099735,0.12504697353676586,0.08717372478607859,0.26123449171522,0.07867314320048177,1.0,0.0
109.45016604099735,109.45016604099735,109.45016604099735,0.2266640867640644,0.0883128020730623,0.26506761960330105,0.07983250345736476,1.0,0.0
109.45516604099734,109.45516604099734,109.45516604099734,0.12315924947572966,0.0894480250701832,0.2646304830633694,0.08098897261093324,1.0,0.0
109.46016604099734,109.46016604099734,109.46016604099734,0.12986763263422088,0.09057940860043225,0.26442009165445607,0.08214243733038704,1.0,0.0
109.46516604099733,109.46516604099733,109.46516604099733,0.12124241889659428,0.09170662944106603,0.2639801674922936,0.08329277395328852,1.0,0.0
109.47016604099733,109.47016604099733,109.47016604099733,0.12027316468531739,0.3234638886479089,0.2499240634572796,0.1145897519351604,1.0,0.0
109.47516604099732,109.47516604099732,109.47516604099732,0.11929706169127476,0.09394853779169851,0.21706596361566485,0.11543514240516431,1.0,0.0
109.48016604099732,109.48016604099732,109.48016604099732,0.29902732433393986,0.2549015537797327,0.22715194364551386,0.1304525219795337,1.0,0.0
109.48516604099731,109.48516604099731,109.48516604099731,0.11732390305358838,0.09617281345615762,0.22663742419313895,0.13121090611086383,1.0,0.0
109.49016604099731,109.49016604099731,109.49016604099731,0.11632720625942199,0.09727810053331115,0.190408580365971,0.13197221853023053,1.0,0.0
109.4951660409973,109.4951660409973,109.4951660409973,0.11532387433067898,0.09837865823134317,0.18979416564110071,0.13273623671822116,1.0,0.0
109.5001660409973,109.5001660409973,109.5001660409973,0.11431408195113232,0.09947443319277056,0.14798894464680215,0.1335027407202824,0.11302834113824603,0.0
109.5051660409973,109.5051660409973,109.5051660409973,0.21354539946265155,0.10056511883178486,0.15399705638242178,0.13427150062578636,1.0,0.0
109.51016604099729,109.51016604099729,109.51016604099729,0.11227512402614863,0.10165089551521746,0.15323772072986006,0.1350423086515958,0.9313968001848583,0.02443301475739067
109.51516604099729,109.51516604099729,109.51516604099729,0.11124625712844675,0.10273143559085736,0.15247535776098373,0.13581494193638247,0.8125321738032267,0.053421762313105525
109.52016604099728,109.52016604099728,109.52016604099728,0.11021128632314454,0.10380672020101457,0.15171014002823757,0.13658918872334713,0.693222443901818,0.08247104752392762
109.52516604099728,109.52516604099728,109.52516604099728,0.10917028625716241,0.10487661716038044,0.1509422222261231,0.13736483132327762,0.5734917298369971,0.11157270281832997
109.53016604099727,109.53016604099727,109.53016604099727,0.10812336419569203,0.10594102161550485,0.14248923750264708,0.13814166171056552,0.0,0.14071892319752993
109.53516604099727,109.53516604099727,109.53516604099727,0.10707061356416503,0.10699981580037159,0.14167454791328832,0.13891947096134025,0.0,0.1699018699604746
109.54016604099726,109.54016604099726,109.54016604099726,0.25959292888210983,0.10805290710559383,0.15241180382899508,0.13969804760322005,0.802623095464796,0.19911360878746778
109.54516604099726,109.54516604099726,109.54516604099726,0.10494815766889902,0.1091002585074254,0.15165423642300765,0.1404771940096885,0.6845061743290256,0.22834672484755686
109.55016604099725,109.55016604099725,109.55016604099725,0.10387864254304381,0.13119311086008975,0.15089509125421627,0.11945820860956238,0.5661432546415573,0.0
109.55516604099725,109.55516604099725,109.55516604099725,0.10280357906305487,0.11117689756452662,0.1501345321648833,0.12037913867915576,0.44755988204153807,0.0
109.56016604099725,109.56016604099725,109.56016604099725,0.10172348375506281,0.11220628656656266,0.13265942541496184,0.10591082365954808,0.0,0.0
109.56516604099724,109.56516604099724,109.56516604099724,0.10063816065143569,0.11322939510195924,0.13179992212972416,0.10695949202822795,0.0,0.0
109.57016604099724,109.57016604099724,109.57016604099724,0.09954765257735528,0.11424602844720708,0.13093825543742968,0.10800302459062662,0.0,0.0
109.57516604099723,109.57516604099723,109.57516604099723,0.09845229121944926,0.11525636601114196,0.13007461451213356,0.10904131173615772,0.0,0.0
109.58016604099723,109.58016604099723,109.58016604099723,0.6139693863730471,0.11626010701539002,0.19915464837636984,0.11007422843997075,1.0,0.0
109.58516604099722,109.58516604099722,109.58516604099722,0.15752264488702505,0.11725729301218644,0.19586553575399446,0.11110167131544776,1.0,0.0
109.59016604099722,109.59016604099722,109.59016604099722,0.0951374785483237,0.2989387838542946,0.195297587972918,0.13146501289283483,1.0,0.0
109.59516604099721,109.59516604099721,109.59516604099721,0.09402338239273814,0.11923131571248777,0.1947310697795996,0.13233271341267624,1.0,0.0
109.60016604099721,109.60016604099721,109.60016604099721,0.0929048712953325,0.12020799179905549,0.19416613699315544,0.1331975222085733,1.0,0.0
109.6051660409972,109.6051660409972,109.6051660409972,0.09178210251866122,0.12117770339672176,0.19360294790801744,0.1340592708780227,1.0,0.0
109.6101660409972,109.6101660409972,109.6101660409972,0.09065509055102701,0.12214018647904874,0.19304165783850463,0.13491778395233728,1.0,0.01976092109752008
109.6151660409972,109.6151660409972,109.6151660409972,0.48043420896025096,0.1230955281197585,0.225775637999717,0.13577289937785858,1.0,0.05184435018287117
109.62016604099719,109.62016604099719,109.62016604099719,0.08838903135948867,0.12404349451286945,0.2173732894650848,0.13662444901181575,1.0,0.0837939928607192
109.62516604099719,109.62516604099719,109.62516604099719,0.08725022049027903,0.12498415513114859,0.216883729902604,0.1374722730480532,1.0,0.1156038532978619
109.63016604099718,109.63016604099718,109.63016604099718,0.0861076017784114,0.12591714833746864,0.2163967108476488,0.13716356787159906,1.0,0.10402141618884875
109.63516604099718,109.63516604099718,109.63516604099718,0.08496145433121721,0.12684271886072326,0.21591237463158472,0.13801048021712323,1.0,0.13579707052530088
109.64016604099717,109.64016604099717,109.64016604099717,0.08381181156732105,0.12776061297810784,0.21543084866664963,0.1388530711488901,1.0,0.16741058795287134
109.64516604099717,109.64516604099717,109.64516604099717,0.08265875860175544,0.1286706658640173,0.21495226794424693,0.13969118847890732,1.0,0.19885625846737415
109.65016604099716,109.65016604099716,109.65016604099716,0.08150246603187111,0.1295729178194962,0.2144767698297446,0.14052469450124494,1.0,0.23012891542310554
109.65516604099716,109.65516604099716,109.65516604099716,0.08034298304790738,0.13046711166723243,0.2140044827252891,0.14135342973275075,1.0,0.26122257510576125
109.66016604099715,109.66016604099715,109.66016604099715,0.07918045521447713,0.3544422856205285,0.15043225948682284,0.16427979085010383,0.49398035146453534,1.0
109.66516604099715,109.66516604099715,109.66516604099715,0.07801505283708911,0.1322313239280304,0.14649035802868196,0.16498890969760582,0.0,1.0
109.67016604099715,109.67016604099715,109.67016604099715,0.07684680435207211,0.13310106627117416,0.145817756857776,0.15080884890348661,0.0,0.6159843550743954
109.67516604099714,109.67516604099714,109.67516604099714,0.2477662855604662,0.13396255145146338,0.1566749874869141,0.1515797647004642,1.0,0.6449086634951314
109.68016604099714,109.68016604099714,109.68016604099714,0.0745024639970467,0.13481582679854276,0.15605930949794858,0.15234585384278235,1.0,0.6736518786647537
109.68516604099713,109.68516604099713,109.68516604099713,0.07332652497970221,0.1356604103778995,0.15544793224309805,0.1531069597684856,1.0,0.7022081264705446
109.69016604099713,109.69016604099713,109.69016604099713,0.07214827887238254,0.13649652028994316,0.15484104408229207,0.15386295301560263,1.0,0.7305725495752936
109.69516604099712,109.69516604099712,109.69516604099712,0.07096778326880833,0.13732384186739996,0.09931999422407842,0.15461368420054325,0.0,0.7587395431943369
109.70016604099712,109.70016604099712,109.70016604099712,0.0697852379877518,0.13814262362900412,0.09838976655980096,0.15535903123997682,0.0,0.7867045268327332
109.70516604099711,109.70516604099711,109.70516604099711,0.06860066472851811,0.5465696138345201,0.09746223269960338,0.204526917717839,0.0,1.0
109.71016604099711,109.71016604099711,109.71016604099711,0.0674142676845144,0.13975338789570507,0.0965376718074595,0.2050877925306383,0.0,1.0
109.7151660409971,109.7151660409971,109.7151660409971,0.06622614350577667,0.140545512969918,0.09561635797865876,0.20564532699064655,0.0,1.0
109.7201660409971,109.7201660409971,109.7201660409971,0.13713671640201897,0.3391209269412176,0.09939248771819352,0.22013067668296027,0.0,1.0
109.7251660409971,109.7251660409971,109.7251660409971,0.0638450851421587,0.14210218679448527,0.09852207568617749,0.2206463698302463,0.0,1.0
109.73016604099709,109.73016604099709,109.73016604099709,0.0626524389296986,0.14286687134218462,0.09765637027825218,0.22115872837781853,0.0,1.0
109.73516604099709,109.73516604099709,109.73516604099709,0.061458526620793194,0.14362228041040093,0.09679566818307649,0.22166763160283928,0.0,1.0
109.74016604099708,109.74016604099708,109.74016604099708,0.060263453558176173,0.14436821057358928,0.09594026833495105,0.20636700753677129,0.0,1.0
109.74516604099708,109.74516604099708,109.74516604099708,0.05906732708776115,0.14510441339172855,0.0950904707604281,0.20690692903950003,0.0,1.0
109.75016604099707,109.75016604099707,109.75016604099707,0.057870359468871695,0.14583179438869492,0.09424658788152761,0.20744256056873464,0.0,1.0
109.75516604099707,109.75516604099707,109.75516604099707,0.056672567934204034,0.1465492008974386,0.07243201852978876,0.20797376007222973,0.0,1.0
109.76016604099706,109.76016604099706,109.76016604099706,0.05547410287126843,0.14725682729394354,0.07135698804275209,0.20850039329798123,0.0,1.0
109.76516604099706,109.76516604099706,109.76516604099706,0.054275109134377754,0.14795506988380489,0.07028429949430613,0.20902236421119919,0.0,1.0
109.77016604099705,109.77016604099705,109.77016604099705,0.05307567344188683,0.14864320948641363,0.06921424034002499,0.20953953736738237,0.0,1.0
109.77516604099705,109.77516604099705,109.77516604099705,0.051875934389867054,0.1493215412105369,0.068147112631553,0.210051804420727,0.0,1.0
109.78016604099705,109.78016604099705,109.78016604099705,0.0506760105267733,0.14999017058003714,0.06708322348125853,0.210559052799621,0.0,1.0
109.78516604099704,109.78516604099704,109.78516604099704,0.050523983485319536,0.15064852993790123,0.06607248087716526,0.16456732517787587,0.0,1.0
109.79016604099704,109.79016604099704,109.79016604099704,0.051723923725030214,0.151296891605754,0.06518236171805188,0.16520408065489176,0.0,1.0
109.79516604099703,109.79516604099703,109.79516604099703,0.052923696021781194,0.15193530308341968,0.0644180001936791,0.165833031116301,0.0,1.0
109.80016604099703,109.80016604099703,109.80016604099703,0.054123167936428844,0.15256323714347653,0.05619035632628196,0.1475385639387519,0.0,0.49328518181250164
109.80516604099702,109.80516604099702,109.80516604099702,0.055322235206142246,0.15318112914651882,0.055622642150357025,0.14822986212732547,0.0,0.5192222842760796
109.81016604099702,109.81016604099702,109.81016604099702,0.05652076730708098,0.15378862868901005,0.055210575385138155,0.14891135614173212,0.0,0.5447915398768397
109.81516604099701,109.81516604099701,109.81516604099701,0.057718648340428495,0.15438576324668662,0.05495771898785902,0.1495829778648156,0.0,0.5699903928990435
109.82016604099701,109.82016604099701,109.82016604099701,0.23839149411322438,0.15497241320945113,0.07965724804292479,0.15024466398641154,0.0,0.594816467982465
109.825166040997,109.825166040997,109.825166040997,0.06011197287202878,0.15554862272141856,0.079706075209809,0.15089636927105965,0.0,0.6192680679191749
109.830166040997,109.830166040997,109.830166040997,0.061307170759522675,0.1561141834085545,0.07986650012955547,0.15153798083189018,0.0,0.6433409572600479
109.835166040997,109.835166040997,109.835166040997,0.06250125087174804,0.15666925354570996,0.08013783122353353,0.15216946574391024,0.0,0.6670339006786672
109.84016604099699,109.84016604099699,109.84016604099699,0.06369407989670588,0.15721364171209454,0.08051890756830837,0.1527907672342094,0.0,0.6903447680887409
109.84516604099699,109.84516604099699,109.84516604099699,0.06488551341933373,0.15774711360157445,0.08100812227642769,0.1534017898318009,0.0,0.713269977474857
109.85016604099698,109.85016604099698,109.85016604099698,0.06607549763433798,0.15827009815747095,0.08160346127476692,0.1540025093590105,0.0,0.7358086217048634
109.85516604099698,109.85516604099698,109.85516604099698,0.06726382557662386,0.15878193097148058,0.0823025318317801,0.15459284127092848,0.0,0.7579575287033474
109.86016604099697,109.86016604099697,109.86016604099697,0.06845047917007328,0.21240052347722518,0.0831026165316268,0.15909904074551062,0.0,0.9270274892868158
109.86516604099697,109.86516604099697,109.86516604099697,0.06963529373909398,0.15977359506342978,0.08396171717565203,0.15965445076111026,0.0,0.9478661472234581
109.87016604099696,109.87016604099696,109.87016604099696,0.07081811541704329,0.1602528228444609,0.08482812048602154,0.16019966373742864,0.0,0.9683222182286795
109.87516604099696,109.87516604099696,109.87516604099696,0.17640345592702236,0.16072085566912317,0.09468705761132525,0.16073459749485483,0.0,0.9883926189716913
109.88016604099695,109.88016604099695,109.88016604099695,0.07317737495225972,0.16117806426769724,0.09548423723410959,0.16125922461651482,0.0,1.0
109.88516604099695,109.88516604099695,109.88516604099695,0.3647554348274413,0.16162411379500125,0.13130637134456472,0.16177347129090153,0.0,1.0
109.89016604099695,109.89016604099695,109.89016604099695,0.07552735344172708,0.16205881140183118,0.13190232998125875,0.16227727279548773,0.0,1.0
109.89516604099694,109.89516604099694,109.89516604099694,0.07669859532459031,0.16248250375335443,0.1325053835298488,0.16277058479416576,0.0,1.0
109.90016604099694,109.90016604099694,109.90016604099694,0.07786712988789025,0.16289479363398446,0.11993634042735944,0.16325334554857765,0.0,1.0
109.90516604099693,109.90516604099693,109.90516604099693,0.07903295736648959,0.1632961156447806,0.1206203680844484,0.1637255181467973,0.0,1.0
109.91016604099693,109.91016604099693,109.91016604099693,0.08019588362145605,0.1636861008351824,0.1213108563032731,0.16418705529522984,0.0,1.0
109.91516604099692,109.91516604099692,109.91516604099692,0.08135573700943984,0.16406451067516065,0.12200756413444976,0.16463788572971513,0.0,1.0
109.92016604099692,109.92016604099692,109.92016604099692,0.08251241999054096,0.1644313930545587,0.12271025194924562,0.16507795290450958,0.0,1.0
109.92516604099691,109.92516604099691,109.92516604099691,0.0836659069788346,0.16478702861178968,0.12341868504051004,0.16550723200047981,0.0,1.0
109.93016604099691,109.93016604099691,109.93016604099691,0.08481603796125727,0.16513121758090765,0.12413262513887059,0.16592566041761517,0.0,1.0
109.9351660409969,109.9351660409969,109.9351660409969,0.08596262584825777,0.16546369075307465,0.12485183438615424,0.1663331987147607,0.0,1.0
109.9401660409969,109.9401660409969,109.9401660409969,0.08710568421030163,0.16578483191951893,0.12557607776676036,0.1629874143983457,0.0,1.0
109.9451660409969,109.9451660409969,109.9451660409969,0.17077990425931547,0.16609414695002417,0.13148819397602446,0.16338184186279936,0.0,1.0
109.95016604099689,109.95016604099689,109.95016604099689,0.08938044501921734,0.16639200634537102,0.13219303616346387,0.16376495209478434,0.0,1.0
109.95516604099689,109.95516604099689,109.95516604099689,0.09051203417422955,0.16667832458542256,0.12665756738870704,0.16413672330432724,0.0,1.0
109.96016604099688,109.96016604099688,109.96016604099688,0.09163950287311232,0.16695277533676411,0.1274061174726133,0.16449709035893056,0.0,1.0
109.96516604099688,109.96516604099688,109.96516604099688,0.09276285876940042,0.1672156760003986,0.09194955173967724,0.16484602890370104,0.0,1.0
109.97016604099687,109.97016604099687,109.97016604099687,0.09388194637126332,0.16746687380880326,0.09300032250568627,0.16518351676912196,0.0,1.0
109.97516604099687,109.97516604099687,109.97516604099687,0.09499656576491594,0.16770611269640404,0.09405006404867211,0.16550949436611198,0.0,1.0
109.98016604099686,109.98016604099686,109.98016604099686,0.09610675080581309,0.167933754474467,0.09509858384671875,0.16582394951123033,0.0,1.0
109.98516604099686,109.98516604099686,109.98516604099686,0.09721232123170245,0.16814959117612752,0.09614568289956675,0.1661268301878256,0.0,1.0
109.99016604099685,109.99016604099685,109.99016604099685,0.0983131388166967,0.1683535352520375,0.09719116824516182,0.16641810158402764,0.0,1.0
109.99516604099685,109.99516604099685,109.99516604099685,0.09940917458056986,0.5056770857330668,0.09823485856742462,0.2049255816036817,0.0,1.0
110.00016604099685,110.00016604099685,110.00016604099685,0.10050026187849556,0.16872611965133746,0.0992765714396974,0.20514365764636283,0.0,1.0
110.00516604099684,110.00516604099684,110.00516604099684,0.10158623779941148,0.16889445902204675,0.10031611968821019,0.205352334088588,0.0,1.0
110.01016604099684,110.01016604099684,110.01016604099684,0.10266713464371276,0.16905109267259905,0.10135333065238095,0.20555158275420546,0.0,1.0
110.01516604099683,110.01516604099683,110.01516604099683,0.10374276569891974,0.16919581985841337,0.10238803352364573,0.20574137941601514,0.0,1.0
110.02016604099683,110.02016604099683,110.02016604099683,0.10481294675343394,0.16932845985679973,0.10342004886832287,0.20592167201495692,0.0,1.0
110.02516604099682,110.02516604099682,110.02516604099682,0.10587765858665318,0.16944919602835884,0.09784413849836368,0.20609244352816664,0.0,1.0
110.03016604099682,110.03016604099682,110.03016604099682,0.3044213352218875,0.16955803423483676,0.12192699977912887,0.2062536593112521,0.0,1.0
110.03516604099681,110.03516604099681,110.03516604099681,0.10799027785115606,0.16965496271311842,0.1228130093328492,0.20640528913933792,0.0,1.0
110.04016604099681,110.04016604099681,110.04016604099681,0.10903801019957968,0.16974004088300562,0.12369823497217446,0.2065473230341862,0.0,1.0
110.0451660409968,110.0451660409968,110.0451660409968,0.11007973495381533,0.16981293313101045,0.12458246602254343,0.20667971846550737,0.0,1.0
110.0501660409968,110.0501660409968,110.0501660409968,0.45629652265642895,0.38980114720444226,0.1672807053611577,0.22463357342268372,1.0,1.0
110.0551660409968,110.0551660409968,110.0551660409968,0.11214506156126995,0.16992278294875254,0.16794298093093163,0.2247376649656797,1.0,1.0
110.06016604099679,110.06016604099679,110.06016604099679,0.6389158696176024,0.16995984750244514,0.23052311413422336,0.2248328396746655,1.0,1.0
110.06516604099679,110.06516604099679,110.06516604099679,0.22813293253261024,0.16998479567220465,0.23622670492411993,0.22491907412525677,1.0,1.0
110.07016604099678,110.07016604099678,110.07016604099678,0.1151961989809386,0.1699976406986631,0.23670308258773537,0.22499635045610414,1.0,1.0
110.07516604099678,110.07516604099678,110.07516604099678,0.11620049481988025,0.1699988791199924,0.23718056938625043,0.19091294275199477,1.0,1.0
110.08016604099677,110.08016604099677,110.08016604099677,0.11719808186545792,0.16998795141125392,0.23765903197457483,0.19098288986451448,1.0,1.0
110.08516604099677,110.08516604099677,110.08516604099677,0.11818885130648263,0.16996485067975936,0.23813833801600212,0.19104223023232708,1.0,1.0
110.09016604099676,110.09016604099676,110.09016604099676,0.11917287837046324,0.169929889431738,0.23861835676079202,0.19109095267416942,1.0,1.0
110.09516604099676,110.09516604099676,110.09516604099676,0.12014994574256706,0.16988286130857577,0.23909895584237328,0.19112904610033352,1.0,1.0
110.10016604099675,110.10016604099675,110.10016604099675,0.5169119142135037,0.16982371348723993,0.27052092620157653,0.1911565069773808,1.0,1.0
110.10516604099675,110.10516604099675,110.10516604099675,0.12208303239312439,0.16975300598840384,0.27094733487546174,0.19117335319745415,1.0,1.0
110.11016604099675,110.11016604099675,110.11016604099675,0.12303865763208165,0.16966985814194854,0.2618522358066995,0.19117955391340619,1.0,1.0
110.11516604099674,110.11516604099674,110.11516604099674,0.12398722029582183,0.16957513948340586,0.26229473224764166,0.19117512764970412,1.0,1.0
110.12016604099674,110.12016604099674,110.12016604099674,0.12492785922672896,0.1694676220684812,0.26273728648838585,0.19116002203008345,1.0,1.0
110.12516604099673,110.12516604099673,110.12516604099673,0.12586182536170698,0.16934946332209555,0.26317980526822826,0.19113432332223793,1.0,1.0
110.13016604099673,110.13016604099673,110.13016604099673,0.12678780389886846,0.16921873049425373,0.2392810049196224,0.1697806152836993,1.0,1.0
110.13516604099672,110.13516604099672,110.13516604099672,0.12770606329661946,0.16907601411451478,0.23976794938226847,0.16972777166715877,1.0,1.0
110.14016604099672,110.14016604099672,110.14016604099672,0.12861658403400375,0.16892143945038318,0.18168438465767495,0.169662968584876,1.0,1.0
110.14516604099671,110.14516604099671,110.14516604099671,0.12951922085137577,0.16875493987001353,0.17551318392770146,0.16958621802702098,1.0,1.0
110.15016604099671,110.15016604099671,110.15016604099671,0.1304139568851603,0.16857664121366214,0.17617741051455332,0.16949753900040493,1.0,1.0
110.1551660409967,110.1551660409967,110.1551660409967,0.13130071952325656,0.16838658269912354,0.1768390870892156,0.16939692182233856,1.0,1.0
110.1601660409967,110.1601660409967,110.1601660409967,0.13217913915017457,0.168184376152994,0.17749805245309977,0.16928436776676853,1.0,1.0
110.1651660409967,110.1651660409967,110.1651660409967,0.13304953168334724,0.16797062638549518,0.17815416626167943,0.16915991612688114,1.0,1.0
110.17016604099669,110.17016604099669,110.17016604099669,0.13391149357309165,0.1677449007351789,0.17880726783225648,0.16902355974560684,1.0,1.0
110.17516604099669,110.17516604099669,110.17516604099669,0.13476510910347617,0.16750746487810947,0.17945721106365278,0.16887532091174726,1.0,1.0
110.18016604099668,110.18016604099668,110.18016604099668,0.13561035291869122,0.16725842188464202,0.12905194942511866,0.16871523164741875,0.0,1.0
110.18516604099668,110.18516604099668,110.18516604099668,0.13644682792991417,0.16699736865294823,0.12994805704121962,0.16854326379530574,0.0,1.0
110.19016604099667,110.19016604099667,110.19016604099667,0.5512969565234257,0.1667249009982765,0.18691137329304902,0.16835948150151814,1.0,1.0
110.19516604099667,110.19516604099667,110.19516604099667,0.13809408268468612,0.16644062656770997,0.1875284858922333,0.16816386993510152,1.0,1.0
110.20016604099666,110.20016604099666,110.20016604099666,0.13890441395887984,0.16614461240694706,0.1881419667669243,0.1679564958045507,1.0,1.0
110.20516604099666,110.20516604099666,110.20516604099666,0.13970598147674265,0.1658371496107837,0.18875164845634831,0.1677373078638613,1.0,1.0
110.21016604099665,110.21016604099665,110.21016604099665,0.1404985857923881,0.16551811119848114,0.18935741042272175,0.16750636882953107,1.0,1.0
110.21516604099665,110.21516604099665,110.21516604099665,0.14128192597470582,0.16518724896713358,0.1899591084477768,0.16726368894797455,1.0,1.0
110.22016604099665,110.22016604099665,110.22016604099665,0.142056466409774,0.1648452819050116,0.19055662217511668,0.16700931495505533,1.0,1.0
110.22516604099664,110.22516604099664,110.22516604099664,0.14282153764658098,0.16449150046045924,0.19114980759904474,0.16674325408043336,1.0,1.0
110.23016604099664,110.23016604099664,110.23016604099664,0.14357735616478529,0.16412630853275395,0.19173853293209842,0.16646553053316704,1.0,1.0
110.23516604099663,110.23516604099663,110.23516604099663,0.14432396227127023,0.16374988092326864,0.19232267275883133,0.1661761768350679,1.0,1.0
110.24016604099663,110.24016604099663,110.24016604099663,0.14506084357668958,0.16336172715232747,0.19290209479589443,0.165875219946451,1.0,1.0
110.24516604099662,110.24516604099662,110.24516604099662,0.14578871739637617,0.16296283097220968,0.19347668836729892,0.16556270912155105,1.0,1.0
110.25016604099662,110.25016604099662,110.25016604099662,0.14650665550968475,0.16255221469218617,0.19404631777343903,0.16523866095842946,1.0,1.0
110.25516604099661,110.25516604099661,110.25516604099661,0.14721501706342133,0.16213043042702346,0.19461086199134017,0.16490310921983808,1.0,1.0
110.26016604099661,110.26016604099661,110.26016604099661,0.14791362756533477,0.16169739944548014,0.19517019417053091,0.16455607634291566,1.0,1.0
110.2651660409966,110.2651660409966,110.2651660409966,0.1486025400008136,0.1612533043580419,0.19572420856966724,0.16419762163536855,1.0,1.0
110.2701660409966,110.2701660409966,110.2701660409966,0.1492814452578564,0.16079791825113735,0.14389320448466378,0.16382775274514708,0.0,1.0
110.2751660409966,110.2751660409966,110.2751660409966,0.14995057191555938,0.1603316195219805,0.14463299828685416,0.16344652549815222,0.0,1.0
110.28016604099659,110.28016604099659,110.28016604099659,0.15060959311106895,0.15985416520672466,0.14536335516881146,0.1630539766957506,0.0,1.0
110.28516604099659,110.28516604099659,110.28516604099659,0.29668985838115614,0.1593657449417643,0.15941204299330614,0.1626501363222969,1.0,1.0
110.29016604099658,110.29016604099658,110.29016604099658,0.1518973301094761,0.2018348538176749,0.16006407652591842,0.16519347229299755,1.0,1.0
110.29516604099658,110.29516604099658,110.29516604099658,0.1525261686725919,0.158356235938531,0.16070776798049052,0.16477484692201347,1.0,1.0
110.30016604099657,110.30016604099657,110.30016604099657,0.1531443468032326,0.15783491560741078,0.16134298449601403,0.1643452723059792,1.0,1.0
110.30516604099657,110.30516604099657,110.30516604099657,0.15375275000082056,0.15730337599385344,0.1619696836707369,0.1639048494639027,1.0,1.0
110.31016604099656,110.31016604099656,110.31016604099656,0.1543503522393275,0.15676066376496284,0.16258775109296986,0.1634535972753423,1.0,1.0
110.31516604099656,110.31516604099656,110.31516604099656,0.1549376504675441,0.15620741135019586,0.1631971006050345,0.16299156175519128,1.0,1.0
110.32016604099655,110.32016604099655,110.32016604099655,0.15551449817930157,0.1556435813123247,0.16379766656209865,0.16251881771041854,1.0,1.0
110.32516604099655,110.32516604099655,110.32516604099655,0.15608077050055905,0.15506916286468825,0.16438933700573904,0.16203537784095065,1.0,1.0
110.33016604099655,110.33016604099655,110.33016604099655,0.6642024813871763,0.15448434656959706,0.23077077399868465,0.16154132783645783,1.0,1.0
110.33516604099654,110.33516604099654,110.33516604099654,0.15718153514764302,0.36781440774697344,0.23118122975460428,0.18140610030785556,1.0,1.0
110.34016604099654,110.34016604099654,110.34016604099654,0.6115671380401159,0.1532829538395403,0.2746875610312401,0.18094895457918572,1.0,1.0
110.34516604099653,110.34516604099653,110.34516604099653,0.1582391180306352,0.1526669018038378,0.275023749263709,0.18048284914237678,1.0,1.0
110.35016604099653,110.35016604099653,110.35016604099653,0.15875198463858758,0.1520407126255461,0.2753550259748194,0.18000787294146736,1.0,1.0
110.35516604099652,110.35516604099652,110.35516604099652,0.15925353633910874,0.1514039072653683,0.2756812879137116,0.1795240694258124,1.0,1.0
110.36016604099652,110.36016604099652,110.36016604099652,0.15974462391333863,0.15075738994694807,0.27600247456140864,0.17903154410273273,1.0,1.0
110.36516604099651,110.36516604099651,110.36516604099651,0.1602243709125591,0.15010046024782664,0.26884996192026317,0.17853035597040381,1.0,1.0
110.37016604099651,110.37016604099651,110.37016604099651,0.16069336457222452,0.14943376535975858,0.26916936941677466,0.17527880470494336,1.0,1.0
110.3751660409965,110.3751660409965,110.3751660409965,0.16115110679607306,0.2647585642700407,0.269483283109459,0.18312955624953273,1.0,1.0
110.3801660409965,110.3801660409965,110.3801660409965,0.1615978868324247,0.1480704205583117,0.2697916469331197,0.18261912872388417,1.0,1.0
110.3851660409965,110.3851660409965,110.3851660409965,0.16203342519206962,0.14737399824436362,0.27009436392962977,0.18210070738354425,1.0,1.0
110.39016604099649,110.39016604099649,110.39016604099649,0.16245776197417022,0.1466678401109781,0.2703913760660268,0.18157440480629816,1.0,1.0
110.39516604099649,110.39516604099649,110.39516604099649,0.1628707866763112,0.44614136128637116,0.27068260445056197,0.2094859169762239,1.0,1.0
110.40016604099648,110.40016604099648,110.40016604099648,0.1632726225233732,0.14522656582143997,0.27096798101389324,0.20901785533753942,1.0,1.0
110.40516604099648,110.40516604099648,110.40516604099648,0.16366296440265884,0.144491511149347,0.271247431641406,0.2085435765495337,1.0,1.0
110.41016604099647,110.41016604099647,110.41016604099647,0.1640422899404644,0.14374729730796124,0.2183671855157296,0.20806318830908188,1.0,1.0
110.41516604099647,110.41516604099647,110.41516604099647,0.16440978755300148,0.14299336023656856,0.21869959227968827,0.19003360028474828,1.0,1.0
110.42016604099646,110.42016604099646,110.42016604099646,0.16476605610739448,0.14223029818145033,0.16171071306646578,0.18949572910390775,1.0,1.0
110.42516604099646,110.42516604099646,110.42516604099646,0.1651108745311757,0.14145803351690123,0.1621395344180387,0.18895126585941935,1.0,1.0
110.43016604099645,110.43016604099645,110.43016604099645,0.16544403738846722,0.14067650945787005,0.16255714280320777,0.188400304527288,1.0,1.0
110.43516604099645,110.43516604099645,110.43516604099645,0.1657660065805945,0.13988619177040654,0.16296354556361783,0.18784298620264023,1.0,1.0
110.44016604099644,110.44016604099644,110.44016604099644,0.16607606541769185,0.1390866249822513,0.163358652502334,0.18727938655818174,1.0,1.0
110.44516604099644,110.44516604099644,110.44516604099644,0.16637465112162417,0.13827825338335767,0.16374245499021664,0.18670963842051053,1.0,1.0
110.45016604099644,110.45016604099644,110.45016604099644,0.16666147314151605,0.13746095847635517,0.16411489006785163,0.18613383796033825,1.0,1.0
110.45516604099643,110.45516604099643,110.45516604099643,0.16693675308989114,0.13663501108879933,0.16447593946044287,0.1772894735740165,1.0,1.0
110.46016604099643,110.46016604099643,110.46016604099643,0.16720027091049455,0.13580034918525238,0.16482555326506604,0.17667445422955033,1.0,1.0
110.46516604099642,110.46516604099642,110.46516604099642,0.16745225386531157,0.13495724189604255,0.1651637132119334,0.1760532884914765,1.0,1.0
110.47016604099642,110.47016604099642,110.47016604099642,0.1676921203690787,0.13410537070946982,0.1654903617660788,0.17542608153951084,1.0,1.0
110.47516604099641,110.47516604099641,110.47516604099641,0.16792059635001372,0.13324536029657053,0.16580549427821026,0.1394411105850379,1.0,0.18947348260541047
110.48016604099641,110.48016604099641,110.48016604099641,0.16813699294182108,0.13237682220904784,0.16610905492614708,0.13863937950148242,1.0,0.1593930027110237
110.4851660409964,110.4851660409964,110.4851660409964,0.16834182012428683,0.25368375572296376,0.1664010390106188,0.1481155992587343,1.0,0.5149352084824242
110.4901660409964,110.4901660409964,110.4901660409964,0.16853468699051072,0.1306153733488433,0.16668138775278227,0.14735348277443638,1.0,0.4863410451110372
110.4951660409964,110.4951660409964,110.4951660409964,0.16871555694024148,0.12972237239188888,0.16695009008711378,0.14658392966985942,1.0,0.45746786410970613
110.50016604099639,110.50016604099639,110.50016604099639,0.16888490574876333,0.12882163404821148,0.1672071281797875,0.1458070494432196,1.0,0.4283197737872618
110.50516604099639,110.50516604099639,110.50516604099639,0.16904194198000852,0.12791273265857409,0.16745244785573324,0.1450229340930071,1.0,0.3989002258730823
110.51016604099638,110.51016604099638,110.51016604099638,0.16918716475361809,0.12699610235705433,0.1676860392027323,0.1442317042790324,1.0,0.36921374745246777
110.51516604099638,110.51516604099638,110.51516604099638,0.1693209060997306,0.12607205334287117,0.1679078847539553,0.14343347070458504,1.0,0.3392644920478941
110.52016604099637,110.52016604099637,110.52016604099637,0.16944250731234412,0.1251402612454839,0.1681179697378512,0.1426283553569914,1.0,0.3090570365522793
110.52516604099637,110.52516604099637,110.52516604099637,0.16955184654297034,0.12420075641312149,0.16831624478023535,0.14181645632742232,1.0,0.2785950612888055
110.53016604099636,110.53016604099636,110.53016604099636,0.16964952437690137,0.12325401487949841,0.1685027163361043,0.14099790637695658,1.0,0.24788354737525978
110.53516604099636,110.53516604099636,110.53516604099636,0.16973515439551223,0.12229989698953171,0.1686773528270399,0.14017281570247803,1.0,0.21692662933407325
110.54016604099635,110.54016604099635,110.54016604099635,0.16980883625514506,0.12133856445264336,0.1688401425878905,0.13934130861305222,1.0,0.18572897116845635
110.54516604099635,110.54516604099635,110.54516604099635,0.1698706514355701,0.12037016471966312,0.16899106501531364,0.13850350266112804,1.0,0.15429498337732542
110.55016604099634,110.55016604099634,110.55016604099634,0.16992022592761896,0.11939457901208153,0.16913011204867817,0.13765952996314076,1.0,0.12262962289182136
110.55516604099634,110.55516604099634,110.55516604099634,0.1699579111501254,0.11841211474892592,0.16925725274518236,0.13680950303102016,1.0,0.09073711109354057
110.56016604099634,110.56016604099634,110.56016604099634,0.16998375879108035,0.117422898529199,0.1693725021156716,0.13595356651131577,1.0,0.05862287503616054
110.56516604099633,110.56516604099633,110.56516604099633,0.16999741108894528,0.11642682875636678,0.16947582108905626,0.12372694595633366,1.0,0.0
110.57016604099633,110.57016604099633,110.57016604099633,0.16999911257979422,0.11542414394425123,0.16956721021837567,0.12277929175483687,1.0,0.0
110.57516604099632,110.57516604099632,110.57516604099632,0.16998893275764676,0.11441498075962052,0.16964667669275033,0.12182440377043563,1.0,0.0
110.58016604099632,110.58016604099632,110.58016604099632,0.16996661818146866,0.11339930241534735,0.16971418225073834,0.12086235819460867,1.0,0.0
110.58516604099631,110.58516604099631,110.58516604099631,0.16993223003948116,0.11237724475629808,0.1697697417037279,0.11989326816397555,1.0,0.0
110.59016604099631,110.59016604099631,110.59016604099631,0.4388870469305158,0.11134898029384063,0.1976654032728712,0.11891722893866609,1.0,0.0
110.5951660409963,110.5951660409963,110.5951660409963,0.1698277556030626,0.11031466398951904,0.19769257759005024,0.11793432491016205,1.0,0.0
110.6001660409963,110.6001660409963,110.6001660409963,0.16975751855327859,0.10927426253331292,0.19770946733278882,0.11694466088172381,1.0,0.0
