timestamp,left_raw,right_raw
106.535166041,0.07530242387564128,0.18359988065511956
106.54016604099999,0.6359186864324302,0.13508582469956687
106.54516604099999,0.07295148628679027,0.559233483226298
106.55016604099998,0.07177250448577015,0.13676105129947203
106.55516604099998,0.07059134848400007,0.13758568529374982
106.56016604099997,0.0694081363074665,0.13840157132188835
106.56516604099997,0.06822295726058075,0.13920849114193154
106.57016604099996,0.06703602010732992,0.14000680149888198
106.57516604099996,0.06584734276841678,0.14079593503423196
106.58016604099996,0.06465707993403323,0.1415759845833699
106.58516604099995,0.06346534597281649,0.14234683745025048
106.59016604099995,0.062272280974675596,0.14310856431966537
106.59516604099994,0.06107797307718348,0.14386086319530003
106.60016604099994,0.05988256200008184,0.1446038055157514
106.60516604099993,0.05868616729018319,0.14533733190995668
106.61016604099993,0.057488900686419535,0.1460612894216806
106.61516604099992,0.0562908889303308,0.14677569289452277
106.62016604099992,0.05509224561916917,0.1474803906069832
106.62516604099991,0.053893092999069386,0.14817534447153852
106.63016604099991,0.05269355035552043,0.14886046859076787
106.6351660409999,0.05149373753812468,0.14953565123645074
106.6401660409999,0.05029377685406285,0.15020094058243644
106.6451660409999,0.05090621337341526,0.15085620848875997
106.65016604099989,0.05210611228398344,0.15150135291881575
106.65516604099989,0.053305802189423296,0.1521364212312152
106.66016604099988,0.05450516116996024,0.15276124574002628
106.66516604099988,0.0557040718768715,0.15337582969750757
106.67016604099987,0.056902405617864,0.15397996214502624
106.67516604099987,0.05810005252270223,0.15457376037440637
106.68016604099986,0.059296889490030036,0.15515710302893396
106.68516604099986,0.06049279465462468,0.15572990940028852
106.69016604099986,0.06168765620227801,0.15629219787177284
106.69516604099985,0.06288134762580508,0.15684384154928294
106.70016604099985,0.06407374567923191,0.15738475700572882
106.70516604099984,0.06526474554242247,0.15791500419612947
106.71016604099984,0.06645418543398036,0.158434232781547
106.71516604099983,0.06764202346663385,0.1589429100963875
106.72016604099983,0.06882809043519503,0.5949969810526377
106.72516604099982,0.07001226383285472,0.15992736199813554
106.73016604099982,0.07119443928777008,0.16040310923012113
106.73516604099981,0.07237448396627852,0.486440400276732
106.74016604099981,0.07355231746026202,0.16132145034040046
106.7451660409998,0.07472777224583847,0.1617638965577496
106.7501660409998,0.07590075837231099,0.1621951872721308
106.7551660409998,0.2016128430760336,0.16261527138887077
106.76016604099979,0.07823886562691172,0.16302416025105612
106.76516604099979,0.09574028818394681,0.16342169612104926
106.77016604099978,0.31125240244865343,0.1638077299064771
106.77516604099978,0.08172450345955971,0.16418254618711017
106.78016604099977,0.0828801841665551,0.16454586460844178
106.78516604099977,0.08403262804340186,0.16489790519262162
106.79016604099976,0.08518165420367524,0.16523840166350842
106.79516604099976,0.1412890062650547,0.16556726552442874
106.80016604099976,0.08746897307268882,0.16588458067202227
106.80516604099975,0.08860705550504053,0.16619026600300477
106.81016604099975,0.08974133825079339,0.16648451510042267
106.81516604099974,0.09087161634308251,0.16676702329853885
106.82016604099974,0.09199780049236682,0.16703783565305208
106.82516604099973,0.09311978946193424,0.16729695718343096
106.83016604099973,0.09423745192275164,0.16754431030209316
106.83516604099972,0.09535072262267773,0.16777999350035286
106.84016604099972,0.0964594112301619,0.16800377760945903
106.84516604099971,0.09756349192317562,0.1682158586868626
106.85016604099971,0.0986628082042132,0.16841609765017398
106.8551660409997,0.09975724395634333,0.16860446086975261
106.8601660409997,0.10084675960770079,0.16878109481621215
106.8651660409997,0.2724695253141492,0.16894562982774264
106.87016604099969,0.10301034007851073,0.6512870681814993
106.87516604099969,0.10408423199521089,0.16923934691299017
106.88016604099968,0.1051527053104718,0.1693682461987138
106.88516604099968,0.10621569792003101,0.16948528349382738
106.89016604099967,0.10727301702735301,0.16959026188808551
106.89516604099967,0.10832459192188477,0.16968324894439285
106.90016604099966,0.10937042797136022,0.7511881400084794
106.90516604099966,0.11041031397132361,0.1698336650082222
106.91016604099966,0.11144414003291217,0.16989084777276223
106.91516604099965,0.11247180329455694,0.16993600541952866
106.92016604099965,0.11349322157489554,0.16996917394472338
106.92516604099964,0.11450820542568128,0.16999018731084733
106.93016604099964,0.11551688750128261,0.16999947974820873
106.93516604099963,0.20544460409887674,0.5398763045733604
106.94016604099963,0.11751440013274474,0.1699818837741148
106.94516604099962,0.11850309435709555,0.169955113514859
106.95016604099962,0.11948485950414452,0.16991621036832724
106.95516604099961,0.6216053692131569,0.1698654156921176
106.96016604099961,0.1214274936181345,0.16980251996852935
106.9651660409996,0.4055354469627141,0.16972787067133044
106.9701660409996,0.12334161942339954,0.1696410159275682
106.9751660409996,0.1242876946933997,0.1695422583104322
106.98016604099959,0.12522642583013158,0.5782682752592994
106.98516604099959,0.12615751103641537,0.1693089674345189
106.99016604099958,0.12708114127406875,0.16917457287990237
106.99516604099958,0.12799691051943612,0.1690280243945898
107.00016604099957,0.12890493482363297,0.16886965725311612
107.00516604099957,0.12980505158887184,0.16869937868540363
107.01016604099956,0.13069731089392195,0.1685174113450509
107.01516604099956,0.1315814306882124,0.1683234875199619
107.02016604099956,0.1324572898252596,0.16811758357971443
107.02516604099955,0.13332502703214047,0.16790004538957487
107.03016604099955,0.13418425304006398,0.16767046580302092
107.03516604099954,0.13503522291939957,0.16742934730087838
107.04016604099954,0.13587769821296347,0.167176497557891
107.04516604099953,0.13671157115136504,0.16691190856129925
107.05016604099953,0.13753676004316034,0.1666356102629772
107.05516604099952,0.13835316378306797,0.2923855206674525
107.06016604099952,0.13916073132380524,0.16604796752039355
107.06516604099951,0.1399594691061311,0.16573683532097438
107.07016604099951,0.14074912259974676,0.1654140148959933
107.0751660409995,0.1415297444219821,0.16507970809359285
107.0801660409995,0.14230116995463327,0.16473383871115765
107.0851660409995,0.14306330847039125,0.5619722818220705
107.09016604099949,0.14381614722982514,0.164007586995819
107.09516604099949,0.14455978269065356,0.16362756275879783
107.10016604099948,0.1452937234481182,0.16323588933742325
107.10516604099948,0.14601827578049106,0.16283306102540193
107.11016604099947,0.14673330575822255,0.16241904171889765
107.11516604099947,0.14743865107250095,0.16199376522487513
107.12016604099946,0.14813408173550535,0.16155709325316567
107.12516604099946,0.14881971011069461,0.16110928031582197
107.13016604099946,0.14949559536515333,0.1606505126203246
107.13516604099945,0.150161539781583,0.16018068817558404
107.14016604099945,0.15081746304317847,0.15969983886277223
107.14516604099944,0.15146312773164006,0.15920782772758826
107.15016604099944,0.15209884372458538,0.1587051087380088
107.15516604099943,0.15272427104547087,0.15819143453407986
107.16016604099943,0.15333945055357592,0.1576669666543345
107.16516604099942,0.15394405701373126,0.15713148523541817
107.17016604099942,0.1545384892957599,0.15658551958691105
107.17516604099941,0.34172629972587865,0.37144539574916835
107.18016604099941,0.1556958928578068,0.5451598230092651
107.1851660409994,0.15625869644285453,0.15488376209195542
107.1901660409994,0.1568110365962366,0.15429556915662088
107.1951660409994,0.15735262375630005,0.15369687551388725
107.20016604099939,0.15788364596092996,0.15308797495427154
107.20516604099939,0.15840376242250256,0.7921050388109263
107.21016604099938,0.1589129002360744,0.15183894953318078
107.21516604099938,0.15941126168133954,0.15119917206411654
107.22016604099937,0.15989862694852158,0.15054922368250634
107.22516604099937,0.1603751186402897,0.1498893260093031
107.23016604099936,0.16084044776448717,0.1492193255714518
107.23516604099936,0.16129456789257185,0.1485392931093839
107.24016604099936,0.1617378267928333,0.14784964477066168
107.24516604099935,0.1621697211224852,0.14715004384129532
107.25016604099935,0.16259055840208617,0.146440866539822
107.25516604099934,0.16300004737561297,0.14572196795792944
107.26016604099934,0.16339806758221198,0.14499335572507752
107.26516604099933,0.16378513383099672,0.144255567352384
107.27016604099933,0.16416053547637927,0.14350811507436592
107.27516604099932,0.16452461848949762,0.8476632014602035
107.28016604099932,0.16487719677416887,0.14198535215627323
107.28516604099931,0.1652184458417466,0.1412102394118148
107.29016604099931,0.16554785806215908,0.1404257568492372
107.2951660409993,0.16586587740155598,0.13963236017298727
107.3001660409993,0.16617236148041842,0.1388300404315606
107.3051660409993,0.166467323903119,0.13801890925493718
107.31016604099929,0.1667504249387502,0.1371988135525877
107.31516604099929,0.16702193682441738,0.1363700633773278
107.32016604099928,0.16728183352425274,0.1355327394844527
107.32516604099928,0.167529889764688,0.13468677994272418
107.33016604099927,0.43372075348558425,0.13383232357790065
107.33516604099927,0.16799082630755854,0.13296961752337877
107.34016604099926,0.1682035985536857,0.13209854115622974
107.34516604099926,0.1684045485625756,0.13121925355283962
107.35016604099926,0.16859363741870267,0.13033182974169266
107.35516604099925,0.1687707467033447,0.12943629256732936
107.36016604099925,0.16893624972152815,0.12853299278492752
107.36516604099924,0.16908957426740304,0.12762165181975443
107.37016604099924,0.16923133643130273,0.12670277406507396
107.37516604099923,0.1693609378668814,0.12577607180593792
107.38016604099923,0.16947863166809818,0.12484181036126524
107.38516604099922,0.1695844520682835,0.12390011106001707
107.39016604099922,0.16967794077626677,0.12295079326156547
107.39516604099921,0.169759872765659,0.12199443223634085
107.40016604099921,0.20628764313072837,0.1210308819952954
107.4051660409992,0.3551641744238876,0.5873605639355812
107.4101660409992,0.1699335883903828,0.2774395608559196
107.4151660409992,0.16996757898374387,0.11809783226313927
107.42016604099919,0.2821559895738648,0.11710629955206076
107.42516604099919,0.16999925282208653,0.1161081576501771
107.43016604099918,0.16999712240770373,0.11510337280151216
107.43516604099918,0.16998297523788344,0.11409206913141758
107.44016604099917,0.16995691303717492,0.1130744007730596
107.44516604099917,0.16991873318178824,0.1120503610917343
107.45016604099916,0.1698688489012529,0.1110202638620054
107.45516604099916,0.16980661962716131,0.1099838819059123
107.46016604099916,0.16973262878115072,0.10894161213999935
107.46516604099915,0.16964660200485063,0.10789341661516419
107.47016604099915,0.24223639355653775,0.10683942412223543
107.47516604099914,0.16943862628708536,0.10577974487972788
107.48016604099914,0.1693167764735616,0.10471451667506056
107.48516604099913,0.16918277881410132,0.598343502555235
107.49016604099913,0.16903722596142212,0.1025677200146581
107.49516604099912,0.16887953279672624,0.1014863585492106
107.50016604099912,0.1687100691105767,0.10039989916142003
107.50516604099911,0.16852844902043312,0.0993082796987659
107.51016604099911,0.16833531755201803,0.09821187239566512
107.5151660409991,0.16813023284989329,0.0971105937124718
107.5201660409991,0.16791324877323469,0.09600457024185109
107.5251660409991,0.16768466137131524,0.09489401937046354
107.53016604099909,0.1674439511784693,0.09377884504079566
107.53516604099909,0.16719198945027972,0.09265947651350706
107.54016604099908,0.16692788077261894,0.09153568596101988
107.54516604099908,0.16665234047577704,0.090407835116761
107.55016604099907,0.4157995911669877,0.08927591125859535
107.55516604099907,0.16606621038024,0.0881400930464106
107.56016604099906,0.16575546346432884,0.08700036118812664
107.56516604099906,0.16543348551873177,0.08585703985373426
107.57016604099906,0.16509991760703255,0.2825717597189194
107.57516604099905,0.16475470416967478,0.37171185962146863
107.58016604099905,0.1643980539428575,0.08240590174846275
107.58516604099904,0.16403000054289574,0.08124889209567927
107.59016604099904,0.16365056671356407,0.08008876322375137
107.59516604099903,0.16325971360254946,0.07892561072977264
107.60016604099903,0.48537683645324037,0.07775956745638728
107.60516604099902,0.1624440989090679,0.07659075224919402
107.61016604099902,0.16201939690242026,0.07541927418615767
107.61516604099901,0.16158353691509775,0.07424526376657027
107.62016604099901,0.16113642576403028,0.1861198731850014
107.625166040999,0.16067825528431354,0.07189005880500604
107.630166040999,0.16020905897690152,0.0707091277195824
107.635166040999,0.15972876973517772,0.06952611191931513
107.64016604099899,0.1592375318631608,0.06834114822415868
107.64516604099899,0.2911979992549455,0.06715434452168156
107.65016604099898,0.158222383320471,0.06596584460964237
107.65516604099898,0.157698523808904,0.06477573428681632
107.66016604099897,0.15716388204479345,0.06358414491496453
107.66516604099897,0.1566185387194315,0.06239119935322551
107.67016604099896,0.15606253208894427,0.06119701462945628
107.67516604099896,0.15549592228172437,0.06000171063019372
107.68016604099896,0.15491876941382193,0.05880540709081716
107.68516604099895,0.15433114054031807,0.057608224098244815
107.69016604099895,0.15373306395746597,0.056410278964581034
107.69516604099894,0.1531246194387613,0.055211692987604206
107.70016604099894,0.15250586142349526,0.09238692066276505
107.70516604099893,0.1518768498181578,0.052813076602596355
107.71016604099893,0.15123767486046186,0.0592559616181772
107.71516604099892,0.15058833208683425,0.0504133344698802
107.72016604099892,0.14992885660312305,0.05078665803947125
107.72516604099891,0.14925955160602375,0.05198657314492076
107.73016604099891,0.14858020284275997,0.053186287546217924
107.7351660409989,0.14789104039569137,0.05438568415982066
107.7401660409989,0.1471920902200372,0.05558464232003531
107.7451660409989,0.14648346489411967,0.05678304526720669
107.75016604099889,0.14576508754771986,0.05798076242343069
107.75516604099889,0.1450372424643268,0.05917769038694141
107.76016604099888,0.14429980700659514,0.06037369249199203
107.76516604099888,0.14355295311005395,0.06156865762893503
107.77016604099887,0.1427967985668029,0.06276247290250699
107.77516604099887,0.1420313296217607,0.06395500739665332
107.78016604099886,0.14125665845829524,0.0651461464117293
107.78516604099886,0.14047291942422396,0.06633578110799651
107.79016604099886,0.139680020046038,0.0675237617936624
107.79516604099885,0.13887818731516918,0.06870999554549263
107.80016604099885,0.13806746249164373,0.06989435663861222
107.80516604099884,0.13724797693960136,0.07107673853088249
107.81016604099884,0.13641974798445236,0.07225700849255835
107.81516604099883,0.13558296734837025,0.07343507736758652
107.82016604099883,0.13473750827971373,0.07461077079267948
107.82516604099882,0.13388361172255353,0.0757840132274192
107.83016604099882,0.13302133464060525,0.07695467993272154
107.83516604099881,0.13215074278179106,0.5870976074441048
107.84016604099881,0.131271930792988,0.07928780058217183
107.8451660409988,0.13038500598588598,0.08045003031688251
107.8501660409988,0.12949004431209732,0.08160921603741458
107.8551660409988,0.1285871289200598,0.08276523928962744
107.86016604099879,0.12767629952291085,0.0839179621221744
107.86516604099879,0.1267577614339099,0.08506731804135494
107.87016604099878,0.2394947582156547,0.08621316961445945
107.87516604099878,0.1248976875019383,0.087355365039974
107.88016604099877,0.12395644987227847,0.08849388275275825
107.88516604099877,0.12300768487327986,0.08962848213646146
107.89016604099876,0.12205169495742928,0.09075915821634574
107.89516604099876,0.1210885000931524,0.2791870717391584
107.90016604099876,0.1201182015124159,0.183822640903806
107.90516604099875,0.11914094065296615,0.0941263199652078
107.91016604099875,0.6610180951956162,0.09524001952682815
107.91516604099874,0.32323684988892054,0.09634918040173682
107.92016604099874,0.11616778946378332,0.09745365644753755
107.92516604099873,0.11516341880596699,0.0985534545596971
107.93016604099873,0.11415259743355509,0.09964844992682091
107.93516604099872,0.11313523636123807,0.10073838434966514
107.94016604099872,0.11211167447142058,0.5014179948844576
107.94516604099871,0.11108183561117874,0.10290305223372556
107.95016604099871,0.11004585328999332,0.103977446520174
107.9551660409987,0.10900392470321084,0.10504649453364205
107.9601660409987,0.10795603686070886,0.10610998293231941
107.9651660409987,0.2221885672467937,0.1071678812354157
107.97016604099869,0.10584310964682914,0.1082201469752741
107.97516604099869,0.10477814017639996,0.10926646898602844
107.98016604099868,0.1037078282465163,0.11030701241756055
107.98516604099868,0.10263198315634839,0.11134134320073327
107.99016604099867,0.1015509409455044,0.11236961269408428
107.99516604099867,0.10046476257874544,0.26333696700712483
108.00016604099866,0.09937358703290856,0.11440744932632328
108.00516604099866,0.09827735715442178,0.11541663678858644
108.01016604099866,0.09717639784702231,0.11641941531727462
108.01516604099865,0.0960707124204411,0.11741554307759482
108.02016604099865,0.09496008665842985,0.11840442703214513
108.02516604099864,0.09384555724950677,0.11938736882123799
108.03016604099864,0.3968860621133343,0.12036295088092394
108.03516604099863,0.09160271799418633,0.12133118518578498
108.04016604099863,0.09047523511227258,0.12229284280335884
108.04516604099862,0.08934351943632264,0.1232469482214809
108.05016604099862,0.08820792422230331,0.1241938299043553
108.05516604099861,0.08706850054884104,0.12513328045292535
108.06016604099861,0.08592527496629196,0.1260650189558225
108.0651660409986,0.08477860548504036,0.1269894648965951
108.0701660409986,0.08362840930885809,0.12790611221891296
108.0751660409986,0.08247477804481808,0.1288147973536842
108.08016604099859,0.08131800211148008,0.19616554276185305
108.08516604099859,0.08015803128456878,0.13060877659580467
108.09016604099858,0.13519490576066484,0.13149368685584462
108.09516604099858,0.11032639907838424,0.4295026138487286
108.10016604099857,0.07666053946949244,0.13323896837013444
108.10516604099857,0.08378406284592255,0.13409918054809794
108.11016604099856,0.07431532721800126,0.13495087027031458
108.11516604099856,0.0731390363228296,0.13579419352159344
108.12016604099855,0.07196041796356405,0.1366288891735702
108.12516604099855,0.7311160529385814,0.137454945746334
108.13016604099855,0.06959671520662067,0.13827222403571734
108.13516604099854,0.06841187179683217,0.13908072355900344
108.14016604099854,0.06722516227660572,0.13988018953591028
108.14516604099853,0.06603674848987065,0.14067075423747744
108.15016604099853,0.06484674016802229,0.14145230745698575
108.15516604099852,0.06365523532710082,0.14222464565440873
108.16016604099852,0.11021057904086037,0.14298778936118292
108.16516604099851,0.06126826308318286,0.1437416818714355
108.17016604099851,0.06007302587710613,0.14448617866174926
108.1751660409985,0.05887677028198569,0.14522111582310765
108.1801660409985,0.05767964378052339,0.1459467142296793
108.1851660409985,0.05648173461636601,0.14666253915125252
108.19016604099849,0.05528318672726228,0.14736883685541885
108.19516604099849,0.05408410646918012,0.14806533810931255
108.20016604099848,0.052884617794597,0.14875203551373567
108.20516604099848,0.051684838750456714,0.1494287545868298
108.21016604099847,0.05048489417415667,0.150095646291142
108.21516604099847,0.05071509917780322,0.1507524693642659
108.22016604099846,0.05191502051626188,0.15139925673018215
108.22516604099846,0.05311475169512527,0.1520359397683611
108.23016604099845,0.05431417084383354,0.15266239192835931
108.23516604099845,0.055513162099497554,0.15327864088912374
108.24016604099845,0.05671159872766489,0.15388448504189217
108.24516604099844,0.057909365770151905,0.1544799638226143
108.25016604099844,0.05910633048335035,0.15506485805357212
108.25516604099843,0.06030239782435519,0.2133682060908972
108.26016604099843,0.06149742862045351,0.15620333202335568
108.26516604099842,0.0626913076071347,0.1567566183053248
108.27016604099842,0.09533452916420676,0.15729930358610342
108.27516604099841,0.06507514931263209,0.15783120081138666
108.28016604099841,0.06626487200001682,0.15835236777263284
108.2851660409984,0.06745296018992994,0.15886264297469552
108.2901660409984,0.06863930260721951,0.15936203524091996
108.2951660409984,0.06982376081682294,0.1598503788271529
108.30016604099839,0.23111028447835946,0.16032808204221272
108.30516604099839,0.07218669674837419,0.1607945284037091
108.31016604099838,0.07336487853220947,0.16124991090307278
108.31516604099838,0.0745407057691962,0.16169408759170892
108.32016604099837,0.07571411514449354,0.16212725808639775
108.32516604099837,0.3182274269153564,0.16254913282580594
108.33016604099836,0.0780530646219333,0.16295974806352345
108.33516604099836,0.07921838176135887,0.16335903775633864
108.34016604099835,0.08038081021285652,0.16374711915347231
108.34516604099835,0.0815400384024368,0.3325364813771174
108.35016604099835,0.08269639060303977,0.16448893862223496
108.35516604099834,0.08384930445168115,0.16484259269279344
108.36016604099834,0.08499885663539869,0.16518484409693343
108.36516604099833,0.08614494427193081,0.16551569161135657
108.37016604099833,0.08728739482200906,0.16583491172894674
108.37516604099832,0.08842604378814821,0.34305263885289733
108.38016604099832,0.08956098659931955,0.1664385401242377
108.38516604099831,0.0906918931359862,0.612709987646481
108.39016604099831,0.09181874860408064,0.16699557681692534
108.3951660409983,0.09294140208502263,0.16725652937066293
108.4001660409983,0.09405977237577655,0.16750578704792835
108.4051660409983,0.09517367149269308,0.16774312469086314
108.41016604099829,0.09628313561864092,0.16796890485450428
108.41516604099829,0.09738796349453065,0.16818286656297493
108.42016604099828,0.2975736420418809,0.1683849218019249
108.42516604099828,0.5776896129848738,0.16857532378937046
108.43016604099827,0.10067358026485795,0.16875377030453742
108.43516604099827,0.10175870606339983,0.16892013448780926
108.44016604099826,0.10283880185227828,0.1690749427987549
108.44516604099826,0.10391358814678885,0.7663621023568266
108.45016604099825,0.10498287840561164,0.1693484665311593
108.45516604099825,0.10604665782510635,0.16946719644258657
108.46016604099825,0.10710502826208076,0.1695743947355642
108.46516604099824,0.10815758339528438,0.16966941125803076
108.47016604099824,0.10920427832161107,0.16975236994642673
108.47516604099823,0.11024508193240672,0.16982341331968234
108.48016604099823,0.11127982010341383,0.1698823944396768
108.48516604099822,0.11230850745667252,0.16992953889882462
108.49016604099822,0.11333097366708636,0.16996470627328347
108.49516604099821,0.1143470524982191,0.1699877734590983
108.50016604099821,0.25629727793879264,0.16999871809998898
108.5051660409982,0.11635985428039783,0.16999800113835722
108.5101660409982,0.11735631948497825,0.1699850574063296
108.5151660409982,0.118345981222771,0.16995999703355247
108.52016604099819,0.11932893993617448,0.16992317290340592
108.52516604099819,0.1203049106112118,0.16987425971950504
108.53016604099818,0.12127389380522802,0.16981343177324393
108.53516604099818,0.2852216867975661,0.16974055749714073
108.54016604099817,0.1231902539359253,0.1696556260142221
108.54516604099817,0.7841420624481674,0.16955890005618124
108.55016604099816,0.12507745808956366,0.16945015437135516
108.55516604099816,0.12600980072515916,0.1693294232742843
108.56016604099815,0.12693456163985453,0.16919678978595298
108.56516604099815,0.12785165148452568,0.16905227076923451
108.57016604099815,0.128760914752273,0.16889578287397713
108.57516604099814,0.12966222826779472,0.1687272963672866
108.58016604099814,0.13055580183918633,0.17921692955273438
108.58516604099813,0.13144114103293286,0.1683551308917393
108.59016604099813,0.1323184279249317,0.16815128617430466
108.59516604099812,0.13318724861658934,0.16793529270564575
108.60016604099812,0.1340480755870964,0.16770796645683406
108.60516604099811,0.13490023399574214,0.16746849994164098
108.61016604099811,0.2892346663957842,0.16721763358827463
108.6151660409981,0.13657935435390514,0.16695484784910244
108.6201660409981,0.13740593776681315,0.16668042038242928
108.6251660409981,0.1382236632417372,0.16639416929483775
108.63016604099809,0.13903267723645907,0.16609642652950027
108.63516604099809,0.13983281406081816,0.16578710691416101
108.64016604099808,0.14062389835244854,0.16546611932503436
108.64516604099808,0.1414059346091035,0.1651336038993871
108.65016604099807,0.14217887520553557,0.1647896313781306
108.65516604099807,0.14294252182473602,0.16443408510082835
108.66016604099806,0.14369690758893075,0.16406713762121103
108.66516604099806,0.14444199656617654,0.16368887127657777
108.67016604099805,0.1451775320465833,0.16329910411413762
108.67516604099805,0.29966210510195246,0.1628980636034904
108.68016604099805,0.14662008456490452,0.16248574939167107
108.68516604099804,0.14732692837820757,0.16206220650183853
108.69016604099804,0.14802387023937144,0.1616272640795629
108.69516604099803,0.1487113284041403,0.16118152108975226
108.70016604099803,0.5072717989690849,0.160724323205314
108.70516604099802,0.15005618547220864,0.1602562967195642
108.71016604099802,0.1507136379745675,0.1597771218026501
108.71516604099801,0.32113566783515357,0.1592869248541816
108.72016604099801,0.15199815650493861,0.1587857739854375
108.725166040998,0.15262534904258868,0.1582739714848659
108.730166040998,0.15324214334621275,0.1577511969166451
108.735166040998,0.15384858248266,0.15721761512061183
108.74016604099799,0.6032465123717885,0.15667331340298118
108.74516604099799,0.15503033113445444,0.15611842814779006
108.75016604099798,0.1556054422670326,0.155552850874783
108.75516604099798,0.15616992064030633,0.44496022877436725
108.76016604099797,0.15672394480107812,0.154390107671966
108.76516604099797,0.1572672826951553,0.15379311394336706
108.77016604099796,0.15779971717435878,0.15318557075220818
108.77516604099796,0.15832165076585147,0.15256797583159795
108.78016604099795,0.15883256097418255,0.15193994195313149
108.78516604099795,0.1593326658032834,0.15130178693814333
108.79016604099795,0.15982148896959603,0.15065318205414532
108.79516604099794,0.16029980453781464,0.14999494752471162
108.80016604099794,0.16076707779335994,0.14932669941911308
108.80516604099793,0.16122295506280063,0.14864823238483724
108.81016604099793,0.16166801041328757,0.14796016752644783
108.81516604099792,0.16210175694716478,0.14726218045882988
108.82016604099792,0.16252421357992075,0.14655439908628787
108.82516604099791,0.16293546747818613,0.1458370062767037
108.83016604099791,0.1633354104265944,0.1451100156151785
108.8351660409979,0.16372430403827087,0.14437375095075472
108.8401660409979,0.16410141407376544,0.14362770733993233
108.8451660409979,0.16446741371874432,0.14287254730161436
108.85016604099789,0.16482192300958826,0.1421080630111943
108.85516604099789,0.1651648287014778,0.14133427034275278
108.86016604099788,0.16549613132629978,0.14055127719763583
108.86516604099788,0.16581614394366762,0.1397594324550316
108.87016604099787,0.16612426576559558,0.13895837263205293
108.87516604099787,0.16642113010429133,0.13814868931096227
108.88016604099786,0.16670595083310283,0.13732988729259987
108.88516604099786,0.16697938934063997,0.13650256979062625
108.89016604099785,0.16724119124847794,0.13566664587429272
108.89516604099785,0.16749119536811705,0.13482210000900569
108.90016604099785,0.16772939385510766,0.1339690310323018
108.90516604099784,0.1679557558064472,0.19289943306518428
108.91016604099784,0.16817039661670793,0.2393819319561764
108.91516604099783,0.16837309689812185,0.1313596750765521
108.92016604099783,0.16856412120827574,0.130473573703913
108.92516604099782,0.1687433969500078,0.1295794968640372
108.93016604099782,0.16891070178988518,0.12867739551143106
108.93516604099781,0.16906597706874124,0.2712511253310397
108.94016604099781,0.169209420278511,0.6725881293997656
108.9451660409978,0.16934083308387687,0.1259240061938878
108.9501660409978,0.16946060262639706,0.21943433384429234
108.9551660409978,0.16956823155387565,0.12405048483817425
108.96016604099779,0.16966403269911096,0.12310258723548184
108.96516604099779,0.16974762248323436,0.12214723015973987
108.97016604099778,0.1698195854226678,0.12118486760361345
108.97516604099778,0.169879381642443,0.47448428456758596
108.98016604099777,0.16992683918860574,0.11923845795712411
108.98516604099777,0.16996280453748955,0.1182550074951747
108.99016604099776,0.16998675598298957,0.11726471881917733
108.99516604099776,0.16999851591384263,0.11626759477013122
109.00016604099775,0.16999817024844519,0.11526378714488127
109.00516604099775,0.16998616514579154,0.11425363795278971
109.01016604099775,0.1699620016560764,0.11323697594386195
109.01516604099774,0.16992547763579327,0.11221380071897896
109.02016604099774,0.16987757592145242,0.1111847236888235
109.02516604099773,0.16981739558872266,0.11014937724947442
109.03016604099773,0.16974512039003128,0.10910796035613599
109.03516604099772,0.16966114817732653,0.10806076935023032
109.04016604099772,0.16956508309095003,0.10700770928492126
109.04516604099771,0.16945686865169562,0.1868037620419712
109.05016604099771,0.16933694167600416,0.10488452113015594
109.0551660409977,0.5658914245526766,0.10381467979098193
109.0601660409977,0.36598694639995744,0.10273943354376883
109.0651660409977,0.1689054740044175,0.12134096035974981
109.07016604099769,0.1687378275784076,0.10057326353146093
109.07516604099769,0.16855827851443764,0.09948251537744762
109.08016604099768,0.16836674850054725,0.09838676837926945
109.08516604099768,0.16816367189353504,0.09728630141357548
109.09016604099767,0.1679486867405516,0.09618106746895638
109.09516604099767,0.1677217321757042,0.09507114777026882
109.10016604099766,0.16748322167755847,0.09395680437843305
109.10516604099766,0.16723293133540537,0.09283805209176832
109.11016604099765,0.16697078667933613,0.0917149685101586
109.11516604099765,0.16669697239398193,0.09058772448556365
109.12016604099765,0.1664116780723079,0.08945648667343568
109.12516604099764,0.16611462470246416,0.08832126202319265
109.13016604099764,0.16580592187846005,0.0871821927147335
109.13516604099763,0.1654855252684532,0.08603937013676724
109.14016604099763,0.1651535877473808,0.08489294811123813
109.14516604099762,0.16481039217383872,0.08374311494753106
109.15016604099762,0.1644556670652156,0.5691003141769432
109.15516604099761,0.16408947441992205,0.08143340104760181
109.16016604099761,0.16371184406765715,0.08027375863444265
109.1651660409976,0.16332261784157404,0.07911103063850644
109.1701660409976,0.16292229811089304,0.07794545393911095
109.1751660409976,0.1625107015549465,0.07677708551676125
109.18016604099759,0.16208768432298792,0.07560599946932642
109.18516604099759,0.16165369566747292,0.07443240684485505
109.19016604099758,0.16120838649958127,0.07325633608935833
109.19516604099758,0.16075201235738878,0.07207795128125807
109.20016604099757,0.1602844999921665,0.07089734625229448
109.20516604099757,0.15980606326188387,0.06971467065058862
109.21016604099756,0.15931650892310462,0.06852999896549776
109.21516604099756,0.15881609699022534,0.06734348743118929
109.22016604099755,0.2869253730964176,0.06615523510826492
109.22516604099755,0.1577825057919422,0.06496535560044647
109.23016604099755,0.1572498088872208,0.06377402533040664
109.23516604099754,0.1567059587986523,0.06258126266746025
109.24016604099754,0.15615174397254605,0.061387279411168706
109.24516604099753,0.15558692813679767,0.060192156630781736
109.25016604099753,0.15501124670194916,0.05899598623859233
109.25516604099752,0.15442543002796186,0.05779894787919463
109.26016604099752,0.15382901854374373,0.05660111644090374
109.26516604099751,0.15322211627878107,0.05540261908893671
109.27016604099751,0.15260500387953255,0.05420358791903859
109.2751660409975,0.15197767451417793,0.053004137674602186
109.2801660409975,0.1513398864439047,0.369598086946652
109.2851660409975,0.1506923923782811,0.05060445098929865
109.29016604099749,0.15003456875294313,0.05059554335404356
109.29516604099749,0.14936682904356519,0.0780530193579147
109.30016604099748,0.1486889414808035,0.13092509503215127
109.30516604099748,0.14800150459150202,0.05419469008715621
109.31016604099747,0.7062473447749835,0.055393727012679354
109.31516604099747,0.14659693083465763,0.11792053558625991
109.32016604099746,0.645280085729214,0.30633415209843173
109.32516604099746,0.14515373860577388,0.058987113500261784
109.33016604099745,0.14441787663604996,0.060183275979740124
109.33516604099745,0.4004710322835838,0.17706753352628624
109.34016604099745,0.14291783944460024,0.0625724202058254
109.34516604099744,0.1421537566655283,0.06376515282185682
109.35016604099744,0.1413807103317727,0.06495654744305394
109.35516604099743,0.14059830256749817,0.06614641129403076
109.36016604099743,0.5021176677132517,0.0673346731831069
109.36516604099742,0.13900642875312694,0.06852117944287928
109.37016604099742,0.13819723376888604,0.06970587245253837
109.37516604099741,0.13737906341343983,0.07088856020604938
109.38016604099741,0.13655227987418433,0.07206918930008169
109.3851660409974,0.13571669315365234,0.07324757311561991
109.3901660409974,0.36061266684851523,0.07442369493366438
109.3951660409974,0.5096491615629233,0.07559731540587128
109.40016604099739,0.13315920408936938,0.0767684043067164
109.40516604099739,0.13228996008870136,0.07793681916951471
109.41016604099738,0.5052499698196765,0.07910243701465204
109.41516604099738,0.1305267430068024,0.08026510578205139
109.42016604099737,0.4888816528690428,0.08142475662623816
109.42516604099737,0.12873145475461314,0.08258133880044219
109.43016604099736,0.12782180015387998,0.08373456053869556
109.43516604099736,0.12690452713504777,0.08488447810334578
109.44016604099735,0.12597943413209428,0.0860308479104126
109.44516604099735,0.12504697353676586,0.08717372478607859
109.45016604099735,0.2266640867640644,0.0883128020730623
109.45516604099734,0.12315924947572966,0.0894480250701832
109.46016604099734,0.12986763263422088,0.09057940860043225
109.46516604099733,0.12124241889659428,0.09170662944106603
109.47016604099733,0.12027316468531739,0.3234638886479089
109.47516604099732,0.11929706169127476,0.09394853779169851
109.48016604099732,0.29902732433393986,0.2549015537797327
109.48516604099731,0.11732390305358838,0.09617281345615762
109.49016604099731,0.11632720625942199,0.09727810053331115
109.4951660409973,0.11532387433067898,0.09837865823134317
109.5001660409973,0.11431408195113232,0.09947443319277056
109.5051660409973,0.21354539946265155,0.10056511883178486
109.51016604099729,0.11227512402614863,0.10165089551521746
109.51516604099729,0.11124625712844675,0.10273143559085736
109.52016604099728,0.11021128632314454,0.10380672020101457
109.52516604099728,0.10917028625716241,0.10487661716038044
109.53016604099727,0.10812336419569203,0.10594102161550485
109.53516604099727,0.10707061356416503,0.10699981580037159
109.54016604099726,0.25959292888210983,0.10805290710559383
109.54516604099726,0.10494815766889902,0.1091002585074254
109.55016604099725,0.10387864254304381,0.13119311086008975
109.55516604099725,0.10280357906305487,0.11117689756452662
109.56016604099725,0.10172348375506281,0.11220628656656266
109.56516604099724,0.10063816065143569,0.11322939510195924
109.57016604099724,0.09954765257735528,0.11424602844720708
109.57516604099723,0.09845229121944926,0.11525636601114196
109.58016604099723,0.6139693863730471,0.11626010701539002
109.58516604099722,0.15752264488702505,0.11725729301218644
109.59016604099722,0.0951374785483237,0.2989387838542946
109.59516604099721,0.09402338239273814,0.11923131571248777
109.60016604099721,0.0929048712953325,0.12020799179905549
109.6051660409972,0.09178210251866122,0.12117770339672176
109.6101660409972,0.09065509055102701,0.12214018647904874
109.6151660409972,0.48043420896025096,0.1230955281197585
109.62016604099719,0.08838903135948867,0.12404349451286945
109.62516604099719,0.08725022049027903,0.12498415513114859
109.63016604099718,0.0861076017784114,0.12591714833746864
109.63516604099718,0.08496145433121721,0.12684271886072326
109.64016604099717,0.08381181156732105,0.12776061297810784
109.64516604099717,0.08265875860175544,0.1286706658640173
109.65016604099716,0.08150246603187111,0.1295729178194962
109.65516604099716,0.08034298304790738,0.13046711166723243
109.66016604099715,0.07918045521447713,0.3544422856205285
109.66516604099715,0.07801505283708911,0.1322313239280304
109.67016604099715,0.07684680435207211,0.13310106627117416
109.67516604099714,0.2477662855604662,0.13396255145146338
109.68016604099714,0.0745024639970467,0.13481582679854276
109.68516604099713,0.07332652497970221,0.1356604103778995
109.69016604099713,0.07214827887238254,0.13649652028994316
109.69516604099712,0.07096778326880833,0.13732384186739996
109.70016604099712,0.0697852379877518,0.13814262362900412
109.70516604099711,0.06860066472851811,0.5465696138345201
109.71016604099711,0.0674142676845144,0.13975338789570507
109.7151660409971,0.06622614350577667,0.140545512969918
109.7201660409971,0.13713671640201897,0.3391209269412176
109.7251660409971,0.0638450851421587,0.14210218679448527
109.73016604099709,0.0626524389296986,0.14286687134218462
109.73516604099709,0.061458526620793194,0.14362228041040093
109.74016604099708,0.060263453558176173,0.14436821057358928
109.74516604099708,0.05906732708776115,0.14510441339172855
109.75016604099707,0.057870359468871695,0.14583179438869492
109.75516604099707,0.056672567934204034,0.1465492008974386
109.76016604099706,0.05547410287126843,0.14725682729394354
109.76516604099706,0.054275109134377754,0.14795506988380489
109.77016604099705,0.05307567344188683,0.14864320948641363
109.77516604099705,0.051875934389867054,0.1493215412105369
109.78016604099705,0.0506760105267733,0.14999017058003714
109.78516604099704,0.050523983485319536,0.15064852993790123
109.79016604099704,0.051723923725030214,0.151296891605754
109.79516604099703,0.052923696021781194,0.15193530308341968
109.80016604099703,0.054123167936428844,0.15256323714347653
109.80516604099702,0.055322235206142246,0.15318112914651882
109.81016604099702,0.05652076730708098,0.15378862868901005
109.81516604099701,0.057718648340428495,0.15438576324668662
109.82016604099701,0.23839149411322438,0.15497241320945113
109.825166040997,0.06011197287202878,0.15554862272141856
109.830166040997,0.061307170759522675,0.1561141834085545
109.835166040997,0.06250125087174804,0.15666925354570996
109.84016604099699,0.06369407989670588,0.15721364171209454
109.84516604099699,0.06488551341933373,0.15774711360157445
109.85016604099698,0.06607549763433798,0.15827009815747095
109.85516604099698,0.06726382557662386,0.15878193097148058
109.86016604099697,0.06845047917007328,0.21240052347722518
109.86516604099697,0.06963529373909398,0.15977359506342978
109.87016604099696,0.07081811541704329,0.1602528228444609
109.87516604099696,0.17640345592702236,0.16072085566912317
109.88016604099695,0.07317737495225972,0.16117806426769724
109.88516604099695,0.3647554348274413,0.16162411379500125
109.89016604099695,0.07552735344172708,0.16205881140183118
109.89516604099694,0.07669859532459031,0.16248250375335443
109.90016604099694,0.07786712988789025,0.16289479363398446
109.90516604099693,0.07903295736648959,0.1632961156447806
109.91016604099693,0.08019588362145605,0.1636861008351824
109.91516604099692,0.08135573700943984,0.16406451067516065
109.92016604099692,0.08251241999054096,0.1644313930545587
109.92516604099691,0.0836659069788346,0.16478702861178968
109.93016604099691,0.08481603796125727,0.16513121758090765
109.9351660409969,0.08596262584825777,0.16546369075307465
109.9401660409969,0.08710568421030163,0.16578483191951893
109.9451660409969,0.17077990425931547,0.16609414695002417
109.95016604099689,0.08938044501921734,0.16639200634537102
109.95516604099689,0.09051203417422955,0.16667832458542256
109.96016604099688,0.09163950287311232,0.16695277533676411
109.96516604099688,0.09276285876940042,0.1672156760003986
109.97016604099687,0.09388194637126332,0.16746687380880326
109.97516604099687,0.09499656576491594,0.16770611269640404
109.98016604099686,0.09610675080581309,0.167933754474467
109.98516604099686,0.09721232123170245,0.16814959117612752
109.99016604099685,0.0983131388166967,0.1683535352520375
109.99516604099685,0.09940917458056986,0.5056770857330668
110.00016604099685,0.10050026187849556,0.16872611965133746
110.00516604099684,0.10158623779941148,0.16889445902204675
110.01016604099684,0.10266713464371276,0.16905109267259905
110.01516604099683,0.10374276569891974,0.16919581985841337
110.02016604099683,0.10481294675343394,0.16932845985679973
110.02516604099682,0.10587765858665318,0.16944919602835884
110.03016604099682,0.3044213352218875,0.16955803423483676
110.03516604099681,0.10799027785115606,0.16965496271311842
110.04016604099681,0.10903801019957968,0.16974004088300562
110.0451660409968,0.11007973495381533,0.16981293313101045
110.0501660409968,0.45629652265642895,0.38980114720444226
110.0551660409968,0.11214506156126995,0.16992278294875254
110.06016604099679,0.6389158696176024,0.16995984750244514
110.06516604099679,0.22813293253261024,0.16998479567220465
110.07016604099678,0.1151961989809386,0.1699976406986631
110.07516604099678,0.11620049481988025,0.1699988791199924
110.08016604099677,0.11719808186545792,0.16998795141125392
110.08516604099677,0.11818885130648263,0.16996485067975936
110.09016604099676,0.11917287837046324,0.169929889431738
110.09516604099676,0.12014994574256706,0.16988286130857577
110.10016604099675,0.5169119142135037,0.16982371348723993
110.10516604099675,0.12208303239312439,0.16975300598840384
110.11016604099675,0.12303865763208165,0.16966985814194854
110.11516604099674,0.12398722029582183,0.16957513948340586
110.12016604099674,0.12492785922672896,0.1694676220684812
110.12516604099673,0.12586182536170698,0.16934946332209555
110.13016604099673,0.12678780389886846,0.16921873049425373
110.13516604099672,0.12770606329661946,0.16907601411451478
110.14016604099672,0.12861658403400375,0.16892143945038318
110.14516604099671,0.12951922085137577,0.16875493987001353
110.15016604099671,0.1304139568851603,0.16857664121366214
110.1551660409967,0.13130071952325656,0.16838658269912354
110.1601660409967,0.13217913915017457,0.168184376152994
110.1651660409967,0.13304953168334724,0.16797062638549518
110.17016604099669,0.13391149357309165,0.1677449007351789
110.17516604099669,0.13476510910347617,0.16750746487810947
110.18016604099668,0.13561035291869122,0.16725842188464202
110.18516604099668,0.13644682792991417,0.16699736865294823
110.19016604099667,0.5512969565234257,0.1667249009982765
110.19516604099667,0.13809408268468612,0.16644062656770997
110.20016604099666,0.13890441395887984,0.16614461240694706
110.20516604099666,0.13970598147674265,0.1658371496107837
110.21016604099665,0.1404985857923881,0.16551811119848114
110.21516604099665,0.14128192597470582,0.16518724896713358
110.22016604099665,0.142056466409774,0.1648452819050116
110.22516604099664,0.14282153764658098,0.16449150046045924
110.23016604099664,0.14357735616478529,0.16412630853275395
110.23516604099663,0.14432396227127023,0.16374988092326864
110.24016604099663,0.14506084357668958,0.16336172715232747
110.24516604099662,0.14578871739637617,0.16296283097220968
110.25016604099662,0.14650665550968475,0.16255221469218617
110.25516604099661,0.14721501706342133,0.16213043042702346
110.26016604099661,0.14791362756533477,0.16169739944548014
110.2651660409966,0.1486025400008136,0.1612533043580419
110.2701660409966,0.1492814452578564,0.16079791825113735
110.2751660409966,0.14995057191555938,0.1603316195219805
110.28016604099659,0.15060959311106895,0.15985416520672466
110.28516604099659,0.29668985838115614,0.1593657449417643
110.29016604099658,0.1518973301094761,0.2018348538176749
110.29516604099658,0.1525261686725919,0.158356235938531
110.30016604099657,0.1531443468032326,0.15783491560741078
110.30516604099657,0.15375275000082056,0.15730337599385344
110.31016604099656,0.1543503522393275,0.15676066376496284
110.31516604099656,0.1549376504675441,0.15620741135019586
110.32016604099655,0.15551449817930157,0.1556435813123247
110.32516604099655,0.15608077050055905,0.15506916286468825
110.33016604099655,0.6642024813871763,0.15448434656959706
110.33516604099654,0.15718153514764302,0.36781440774697344
110.34016604099654,0.6115671380401159,0.1532829538395403
110.34516604099653,0.1582391180306352,0.1526669018038378
110.35016604099653,0.15875198463858758,0.1520407126255461
110.35516604099652,0.15925353633910874,0.1514039072653683
110.36016604099652,0.15974462391333863,0.15075738994694807
110.36516604099651,0.1602243709125591,0.15010046024782664
110.37016604099651,0.16069336457222452,0.14943376535975858
110.3751660409965,0.16115110679607306,0.2647585642700407
110.3801660409965,0.1615978868324247,0.1480704205583117
110.3851660409965,0.16203342519206962,0.14737399824436362
110.39016604099649,0.16245776197417022,0.1466678401109781
110.39516604099649,0.1628707866763112,0.44614136128637116
110.40016604099648,0.1632726225233732,0.14522656582143997
110.40516604099648,0.16366296440265884,0.144491511149347
110.41016604099647,0.1640422899404644,0.14374729730796124
110.41516604099647,0.16440978755300148,0.14299336023656856
110.42016604099646,0.16476605610739448,0.14223029818145033
110.42516604099646,0.1651108745311757,0.14145803351690123
110.43016604099645,0.16544403738846722,0.14067650945787005
110.43516604099645,0.1657660065805945,0.13988619177040654
110.44016604099644,0.16607606541769185,0.1390866249822513
110.44516604099644,0.16637465112162417,0.13827825338335767
110.45016604099644,0.16666147314151605,0.13746095847635517
110.45516604099643,0.16693675308989114,0.13663501108879933
110.46016604099643,0.16720027091049455,0.13580034918525238
110.46516604099642,0.16745225386531157,0.13495724189604255
110.47016604099642,0.1676921203690787,0.13410537070946982
110.47516604099641,0.16792059635001372,0.13324536029657053
110.48016604099641,0.16813699294182108,0.13237682220904784
110.4851660409964,0.16834182012428683,0.25368375572296376
110.4901660409964,0.16853468699051072,0.1306153733488433
110.4951660409964,0.16871555694024148,0.12972237239188888
110.50016604099639,0.16888490574876333,0.12882163404821148
110.50516604099639,0.16904194198000852,0.12791273265857409
110.51016604099638,0.16918716475361809,0.12699610235705433
110.51516604099638,0.1693209060997306,0.12607205334287117
110.52016604099637,0.16944250731234412,0.1251402612454839
110.52516604099637,0.16955184654297034,0.12420075641312149
110.53016604099636,0.16964952437690137,0.12325401487949841
110.53516604099636,0.16973515439551223,0.12229989698953171
110.54016604099635,0.16980883625514506,0.12133856445264336
110.54516604099635,0.1698706514355701,0.12037016471966312
110.55016604099634,0.16992022592761896,0.11939457901208153
110.55516604099634,0.1699579111501254,0.11841211474892592
110.56016604099634,0.16998375879108035,0.117422898529199
110.56516604099633,0.16999741108894528,0.11642682875636678
110.57016604099633,0.16999911257979422,0.11542414394425123
110.57516604099632,0.16998893275764676,0.11441498075962052
110.58016604099632,0.16996661818146866,0.11339930241534735
110.58516604099631,0.16993223003948116,0.11237724475629808
110.59016604099631,0.4388870469305158,0.11134898029384063
110.5951660409963,0.1698277556030626,0.11031466398951904
110.6001660409963,0.16975751855327859,0.10927426253331292
110.6051660409963,0.28640264606525795,0.10822791656790073
110.61016604099629,0.32662187465606574,0.10717572777380348
110.61516604099629,0.1694749923743386,0.10611791492955458
110.62016604099628,0.16935686419403265,0.10505441387964201
110.62516604099628,0.16922684864480828,0.10398543015646315
110.63016604099627,0.1690849738413886,0.609905788821425
110.63516604099627,0.16893088893694072,0.10183129753805344
110.64016604099626,0.37258507962966836,0.10074639266901478
110.64516604099626,0.16858753042325939,0.09965650992718522
110.65016604099625,0.16839818382046715,0.09856166618844153
110.65516604099625,0.16819679815793448,0.09746188376915933
110.66016604099624,0.16798357836713343,0.09635735065360763
110.66516604099624,0.16775879991432385,0.09524827511909086
110.67016604099624,0.1675218920954337,0.09413453913952138
110.67516604099623,0.1672736328379666,0.09301653998726712
110.68016604099623,0.16701327442135583,0.09189410238386557
110.68516604099622,0.16674149880036704,0.09076757717812764
110.69016604099622,0.16645788769421804,0.08963691825604245
110.69516604099621,0.16616268487301425,0.08850231412248524
110.70016604099621,0.2787528210115877,0.08736382723465959
110.7051660409962,0.16553728524447886,0.08622161308690394
110.7101660409962,0.16520737798336932,0.08507581648235156
110.7151660409962,0.16486585585464422,0.23849774611197147
110.72016604099619,0.16451294850063358,0.0827737866551854
110.72516604099619,0.1641483569693602,0.16486459767071113
110.73016604099618,0.16377251715024077,0.35163108710113355
110.73516604099618,0.16338534994942727,0.07929640588159584
110.74016604099617,0.16298687685781962,0.0781312960820843
110.74516604099617,0.16257690172354589,0.07696332294251894
110.75016604099616,0.16215572693025132,0.07579266850213165
110.75516604099616,0.16172358303625817,0.07461949062163475
110.76016604099615,0.16127986770123412,0.07344376300486219
110.76516604099615,0.16082524071510973,0.21804482194094155
110.77016604099614,0.1603596987208914,0.07108551869590883
110.77516604099614,0.15988292009340688,0.324553893409375
110.78016604099614,0.1593952206381069,0.06871880483345708
110.78516604099613,0.15889645070210995,0.06753256489691051
110.79016604099613,0.15838699148413288,0.06634460367640367
110.79516604099612,0.5157080008381109,0.0651549798688781
110.80016604099612,0.157335358831297,0.06396385727605884
110.80516604099611,0.48522513010182916,0.06277131746729674
110.81016604099611,0.4627750464310397,0.06157752628395314
110.8151660409961,0.15567747342185784,0.060382558232410795
110.8201660409961,0.15510374164735868,0.059186566783166465
110.8251660409961,0.15451944005340743,0.05798965092278692
110.83016604099609,0.15392448540642675,0.05679192262775952
110.83516604099609,0.15331958410369526,0.055593543582076285
110.84016604099608,0.1527039690940756,0.05439458297674756
110.84516604099608,0.15207835314502607,0.05319519444264873
110.85016604099607,0.15144211995523083,0.05199547470257642
110.85516604099607,0.15079619388714072,0.0507955657614424
110.86016604099606,0.1501400391456814,0.050407234600630235
110.86516604099606,0.1494736188806334,0.05160437561067547
110.87016604099605,0.14879768237714638,0.05280417089810468
110.87516604099605,0.14811163993629536,0.054003681922015385
110.88016604099604,0.1474157892346005,0.055202792477607524
110.88516604099604,0.14671022771124095,0.05640138437401271
110.89016604099604,0.14599497043280538,0.05759933488311599
110.89516604099603,0.14527009547419262,0.058796523687468294
110.90016604099603,0.14453541243006018,0.05999280245023057
110.90516604099602,0.14379191072064534,0.061188149677946974
110.91016604099602,0.14303857519296403,0.2289611316619015
110.91516604099601,0.14227612866310183,0.06357528991498382
110.92016604099601,0.14150426913857503,0.06476686818160744
110.925166040996,0.1407235618907421,0.06595701943415958
110.930166040996,0.1399335441756202,0.06714553517569652
110.935166040996,0.13913461958626294,0.06833235256450813
110.94016604099599,0.1383266441522041,0.06951730743195163
110.94516604099599,0.13751001571347798,0.07070035015698937
110.95016604099598,0.44891495364492695,0.07188126990713732
110.95516604099598,0.33434479406362594,0.07306005659749508
110.96016604099597,0.2894450171111246,0.07423650361456069
110.96516604099597,0.13415654790067813,0.0754105824949579
110.97016604099596,0.1332968881311635,0.07658206918886291
110.97516604099596,0.13242897433476092,0.07775092199708222
110.98016604099595,0.1315527443070513,0.7168557332599206
110.98516604099595,0.13066833559612556,0.08008012683921245
110.99016604099594,0.1297759627998994,0.08124030892953453
110.99516604099594,0.12887551803224828,0.08239732992999774
111.00016604099594,0.12796730194875455,0.08355115927914442
111.00516604099593,0.1270511753801087,0.08470158533054775
111.01016604099593,0.1955552979968978,0.08584857113050885
111.01516604099592,0.12519599189552655,0.08699195207100806
111.02016604099592,0.1242570660037181,0.08813163988394028
111.02516604099591,0.12331065857795691,0.08926748429326396
111.03016604099591,0.12235705861263037,0.0903994764411317
111.0351660409959,0.12139604968301175,0.2591484540850266
111.0401660409959,0.12042803310771708,0.23675809277727153
111.0451660409959,0.11945292489385413,0.09377059271591401
111.05016604099589,0.11847083481631272,0.09488567469365805
111.05516604099589,0.11748201213508196,0.09599634261562864
111.06016604099588,0.11648646121510564,0.09710242902516794
111.06516604099588,0.39615377458721573,0.09820366746871903
111.07016604099587,0.11447529204808543,0.09930020543708067
111.07516604099587,0.11346000894514446,0.1003917696972727
111.08016604099586,0.11243842625404389,0.10147833271117704
111.08516604099586,0.11141051122381415,0.10255967498573296
111.09016604099585,0.11037644542817898,0.10363574909148027
111.09516604099585,0.10933636819206409,0.10470648086782688
111.10016604099584,0.10829046364127662,0.2772025455512622
111.10516604099584,0.10723862421228982,0.10683152473057739
111.11016604099584,0.1061811713979503,0.10788563683489893
111.11516604099583,0.10511798386410537,0.1089338416654578
111.12016604099583,0.10404933423071548,0.1099762058656111
111.12516604099582,0.10297523297341293,0.11101251955888611
111.13016604099582,0.10189587170680568,0.3677531625473682
111.13516604099581,0.10081136180530359,0.11306687586238917
111.14016604099581,0.09972168165457812,0.1140845605325872
111.1451660409958,0.09862704766979694,0.11509585653515662
111.1501660409958,0.09752762999762607,0.6918139708824687
111.1551660409958,0.09642337140027998,0.11709891266975164
111.16016604099579,0.1614325640075438,0.11809038962244703
111.16516604099579,0.17448180505121202,0.11907511896321972
111.17016604099578,0.09308332878598946,0.12005295308879302
111.17516604099578,0.09196112603957574,0.12102360493115007
111.18016604099577,0.09083485806978338,0.12198737415368803
111.18516604099577,0.08970446168269709,0.12294387071241863
111.19016604099576,0.0885700967810311,0.12389307787394763
111.19516604099576,0.08743172162478519,0.12483458984827338
111.20016604099575,0.08628985504952713,0.12576912142118787
111.20516604099575,0.08514423509959697,0.12669582435804944
111.21016604099574,0.31049739471494064,0.1276149037176364
111.21516604099574,0.08284262369405174,0.1285262553532852
111.22016604099574,0.08168680495563177,0.1294296696467257
111.22516604099573,0.08052784544398889,0.13032521011381862
111.23016604099573,0.07936581366604858,0.1312126675776336
111.23516604099572,0.07820084526711445,0.13209200234532045
111.24016604099572,0.07703308325996,0.13296320698663952
111.24516604099571,0.07586256540498792,0.296395167926982
111.25016604099571,0.07468950453856872,0.13468044989162742
111.2551660409957,0.07351397387439695,0.13552648120908314
111.2601660409957,0.07233610234012432,0.13938528627444774
111.2651660409957,0.07115588194850087,0.1371924278577729
111.27016604099569,0.28037200243050675,0.13801277428499245
111.27516604099569,0.41282971672728813,0.13882414279125654
111.28016604099568,0.06760336569690378,0.13962654568934213
111.28516604099568,0.0664154767750488,0.14041992868268743
111.29016604099567,0.0652259545434022,0.14120430697732675
111.29516604099567,0.0640349268556216,0.1419796735323856
111.30016604099566,0.06284248230810352,0.14274576386958612
111.30516604099566,0.0616487511872995,0.14350256027529104
111.31016604099565,0.06045385673043011,0.14425002006481324
111.31516604099565,0.05925791987592543,0.1449880829042974
111.32016604099564,0.05806103961999919,0.1457164482873378
111.32516604099564,0.056863379256934354,0.14643554209474774
111.33016604099564,0.05566501939883083,0.14714483057907268
111.33516604099563,0.05446609326007757,0.14784438414450987
111.34016604099563,0.053266724139916025,0.1485342326104146
111.34516604099562,0.05206702713269543,0.14921418729589364
111.35016604099562,0.05086712462260661,0.5895682034650027
111.35516604099561,0.05033286680988526,0.15054443509011067
111.36016604099561,0.05153282360987271,0.15119432636931368
111.3651660409956,0.05273262868231841,0.1518342566993298
111.3701660409956,0.053932154587291496,0.1524638206538242
111.3751660409956,0.0551312971845799,0.15308339625013187
111.38016604099559,0.05632991538265315,0.15369244092349055
111.38516604099559,0.057527907295347215,0.15429123617794652
111.39016604099558,0.058725159031259126,0.1548797520047418
111.39516604099558,0.37372950221018075,0.15545755469395572
111.40016604099557,0.061116901116854236,0.1560249250094763
111.40516604099557,0.06231115517567855,0.15658155596568424
111.41016604099556,0.06350417620779518,0.1571275307942014
111.41516604099556,0.06469584411078579,0.15766278221264463
111.42016604099555,0.06588608409948919,0.1581875649405296
111.42516604099555,0.06707471435924454,0.15870136678397032
111.43016604099554,0.06826161429931461,0.15920415617160308
111.43516604099554,0.06944668611187099,0.15969602684426426
111.44016604099554,0.07062985418373297,0.16017715463844417
111.44516604099553,0.0718109240813469,0.16064707442665013
111.45016604099553,0.07298984339051284,0.16110608240109525
111.45516604099552,0.08329706145412047,0.4138216796111181
111.46016604099552,0.0753406121255798,0.16199045308524151
111.46516604099551,0.07651225600026047,0.5975584592707599
111.47016604099551,0.07768127366494079,0.1628301598087669
111.4751660409955,0.35576046665257754,0.1632331225555679
111.4801660409955,0.08001083889696319,0.3717184195039093
111.4851660409955,0.08117118231686345,0.16400487018646762
111.49016604099549,0.08232843370169288,0.16437379158363716
111.49516604099549,0.08348245119518291,0.1647312668587024
111.50016604099548,0.08463307398642726,0.16507711041993628
111.50516604099548,0.28922887552444904,0.5480700633514685
111.51016604099547,0.08692388447233443,0.16573447375011102
111.51516604099547,0.0880638028787975,0.16604579212710102
111.52016604099546,0.08919986736787508,0.16634536469407102
111.52516604099546,0.09033208917391397,0.16663353272310202
111.53016604099545,0.09146024463014106,0.30472251804276285
111.53516604099545,0.279576883228262,0.16717453428230994
111.54016604099544,0.09370401597732443,0.16742768121714688
111.54516604099544,0.0948193095569142,0.3234953084524084
111.55016604099544,0.09593028744771652,0.1678984031450704
111.55516604099543,0.09703647680970344,0.1681158088238934
111.56016604099543,0.552150310780583,0.16832200604674785
111.56516604099542,0.09923493793432996,0.16851593260762487
111.57016604099542,0.10032678190436838,0.16869808897715502
111.57516604099541,0.1822713242671341,0.16886848342143485
111.58016604099541,0.1024953261308334,0.16902692287344184
111.5851660409954,0.10357179644085455,0.16917353324710543
111.5901660409954,0.10464289391135885,0.16930818955678043
111.5951660409954,0.6264808774275471,0.16943075916951478
111.60016604099539,0.10676858246619045,0.16954167957886246
111.60516604099539,0.10782292021399095,0.16964040621586934
111.61016604099538,0.10887144911598406,0.1697271175464283
111.61516604099538,0.10991423391761376,0.16980214588751297
111.62016604099537,0.11095085018250309,0.16986484071254612
111.62516604099537,0.11198143161846932,0.169915671675205
111.63016604099536,0.11300598501167283,0.16995483650736556
111.63516604099536,0.11402400057806167,0.16998155348902932
111.64016604099535,0.11503578641035275,0.16999659666511552
111.64516604099535,0.3074210405368982,0.16999941046907635
111.65016604099534,0.11703955503474098,0.16999032884588852
111.65516604099534,0.11803152061727804,0.3717830209370841
111.66016604099534,0.11901649723740566,0.1699360515771078
111.66516604099533,0.11999484838164623,0.1698912371223215
111.67016604099533,0.12096593885228625,0.16983398532576222
111.67516604099532,0.12193011855993267,0.16976506420304577
111.68016604099532,0.12288700492531894,0.16968399825146124
111.68516604099531,0.12383657636911358,0.16959092289603914
111.69016604099531,0.12477887845832393,0.16948607308618366
111.6951660409953,0.12571368871092503,0.1693692498653699
111.7001660409953,0.1266408745111581,0.1692404051079684
111.7051660409953,0.1275603645794369,0.16909958798050648
111.71016604099529,0.12847194180371813,0.1689466242233661
111.71516604099529,0.1623509579049891,0.16878237047963657
111.72016604099528,0.13027197187181522,0.6472680832517722
111.72516604099528,0.1311600390224045,0.16841765746656523
111.73016604099527,0.13203984592501875,0.16821745957016887
111.73516604099527,0.1329115117725137,0.16800553066106558
111.74016604099526,0.13377479218282143,0.16778166749182724
111.74516604099526,0.1346297545891096,0.16754611116424825
111.75016604099525,0.4501113210314972,0.1672987269534781
111.75516604099525,0.45626204838297285,0.16703980487463388
111.76016604099524,0.1371435956765736,0.19020465133585523
111.76516604099524,0.13796414096031717,0.16648660649752708
111.77016604099524,0.13877588627682214,0.16619245286808365
111.77516604099523,0.13957896238926226,0.16588695161487113
111.78016604099523,0.1403729236676917,0.5548211133960559
111.78516604099522,0.14115786219785573,0.16524082420972563
111.79016604099522,0.14193351393324657,0.16490025385756624
111.79516604099521,0.14270020849094187,0.1645484902286394
111.80016604099521,0.14345768871165004,0.16418533823674983
111.8051660409952,0.14420567281010116,0.16381058256103873
111.8101660409952,0.144944357249368,0.16342459154801856
111.8151660409952,0.1456733995855778,0.16302708107441857
111.82016604099519,0.14639282724928235,0.16261821444638844
111.82516604099519,0.14710286016998322,0.16219837135872994
111.83016604099518,0.14780303708679113,0.34170037636746153
111.83516604099518,0.14849349364903883,0.16132479656114213
111.84016604099517,0.14917399584269284,0.16087120372689365
111.84516604099517,0.2944761896492387,0.1604065204640553
111.85016604099516,0.7963923857646595,0.1599309616495079
111.85516604099516,0.15115582055818805,0.3308120273627949
111.86016604099515,0.2883279600288309,0.15894654385535434
111.86516604099515,0.15242670975242897,0.1584382059382719
111.87016604099514,0.1530467801268018,0.1579188751147608
111.87516604099514,0.15365634417120067,0.15738854386058107
111.88016604099514,0.15425579566237083,0.15684773688275436
111.88516604099513,0.1548449383432681,0.15629636243811998
111.89016604099513,0.15542326354454808,0.15573402084467292
111.89516604099512,0.15599135674925807,0.15516141735334857
111.90016604099512,0.15654859732456644,0.1545780455166934
111.90516604099511,0.15709529573200542,0.1539843277812912
111.91016604099511,0.15763138670128485,0.15338030941078934
111.9151660409951,0.15815645994771746,0.1527657088556952
111.9201660409951,0.15867098492316187,0.15214108607818824
111.9251660409951,0.15917450651430703,0.1515061198280106
111.93016604099509,0.1596671316549872,0.15086102280658123
111.93516604099509,0.16014880384264527,0.15020585212699117
111.94016604099508,0.4160732114669617,0.1495406428968102
111.94516604099508,0.1610789001237468,0.1488653749407482
111.95016604099507,0.1615275490550659,0.14818048553222005
111.95516604099507,0.16196457720521532,0.14748536701561957
111.96016604099506,0.16239090101873363,0.14678092945367527
111.96516604099506,0.16280581641740624,0.14606666549944786
111.97016604099505,0.16320928771419738,0.14534265642154545
111.97516604099505,0.16360159679453137,0.23243118443441646
111.98016604099504,0.7159500585762669,0.14386644251816233
111.98516604099504,0.16435210823611532,0.1431141300980409
111.99016604099504,0.16471012941171082,0.14235248483701557
111.99516604099503,0.16505669267287654,0.1415816159473896
112.00016604099503,0.16539191202603573,0.1408017170543298
112.00516604099502,0.16571546753166874,0.14001263897398838
112.01016604099502,0.16602750756897547,0.13921460323140425
112.01516604099501,0.16632776013558442,0.13840750461786042
112.02016604099501,0.16661662421334467,0.1375917516053817
112.025166040995,0.1668937113319322,0.13676715197145128
112.030166040995,0.16715901017693463,0.1359338030840632
112.035166040995,0.16741281551405005,0.32760700829832745
112.04016604099499,0.1676547936528415,0.13424167280325577
112.04516604099499,0.16788498236009472,0.1333828795967893
112.05016604099498,0.16810342922028096,0.13251578099531625
112.05516604099498,0.5749122496143486,0.13164038674685213
112.06016604099497,0.16850477544135203,0.13075684879516247
112.06516604099497,0.16868733592285945,0.12986499168161286
112.07016604099496,0.43706659936872677,0.12896554485689157
112.07516604099496,0.16901784020900468,0.12805808633485496
112.08016604099495,0.16916516069049198,0.1271428192209956
112.08516604099495,0.1693004601904205,0.12621977009569665
112.09016604099494,0.16942385713923386,0.1252891168460947
112.09516604099494,0.16953537732455176,0.1243509758747648
112.10016604099494,0.16963469961871847,0.12340524870653789
112.10516604099493,0.16972236786400208,0.12245237170926179
112.11016604099493,0.16979805589140654,0.12149224259644188
112.11516604099492,0.1698615847118723,0.12052485682067295
112.12016604099492,0.16991313683514295,0.11955042515913356
112.12516604099491,0.169952876543721,0.1185691417889633
112.13016604099491,0.16998042259431023,0.11758088772049963
112.1351660409949,0.16999603742100192,0.11658591394109079
112.1401660409949,0.16999966581467124,0.11558428904483992
112.1451660409949,0.1699912678060458,0.1702653432422197
112.15016604099489,0.16997092124439633,0.22535125217465535
112.15516604099489,0.5233259118445984,0.11254046962502165
112.16016604099488,0.19017231401874862,0.11151325087697694
112.16516604099488,0.16983769156027106,0.11047973686884249
112.17016604099487,0.16976952131734133,0.10944036922479623
112.17516604099487,0.16968899539905663,0.10839486972864915
112.18016604099486,0.16959696856475273,0.10734375915820311
112.18516604099486,0.16949258491144042,0.2285769674291315
112.19016604099485,0.16937648111695483,0.1052241659687336
112.19516604099485,0.16924816590270667,0.10415596088712234
112.20016604099484,0.1691080232807151,0.10308238686062177
112.20516604099484,0.1689563618940473,0.3113904934814234
112.21016604099484,0.16879242498790537,0.100919600115093
112.21516604099483,0.16861664793617673,0.09983044807581162
112.22016604099483,0.16842909729646727,0.09873635023348251
112.22516604099482,0.16822969470408308,0.09763737409908947
112.23016604099482,0.16801849531414662,0.09653364393787323
112.23516604099481,0.16779542127728647,0.8077829051233995
112.24016604099481,0.16756057730293805,0.09431227960240532
112.2451660409948,0.16731388377168852,0.09319486244389746
112.2501660409948,0.1670555538165601,0.09207316151160333
112.2551660409948,0.1791656504718327,0.09094728818293854
112.26016604099479,0.16650374099447549,0.08981722832720825
112.26516604099479,0.16621044374331628,0.08868326629715421
112.27016604099478,0.16590541275323045,0.08754539815134431
112.27516604099478,0.16558884410436636,0.08640379304173561
112.28016604099477,0.16526080023593212,0.08525857284733154
112.28516604099477,0.41754697346693337,0.08410980264499149
112.29016604099476,0.1645699791381929,0.12855470974275351
112.29516604099476,0.16420738416285163,0.08180213283924508
112.30016604099475,0.16383332388685892,0.08064346294320707
112.30516604099475,0.4045518951461243,0.07948172792510823
112.31016604099474,0.16305117390344578,0.12567177673363578
112.31516604099474,0.16264296294377975,0.077149526750567
112.32016604099474,0.1622236852588111,0.07597931860701422
112.32516604099473,0.1617932348026684,0.07480652242395543
112.33016604099473,0.16135142567874072,0.0736312056628432
112.33516604099472,0.16089839130949468,0.07245350908833496
112.34016604099472,0.16043461918042254,0.07127363803072174
112.34516604099471,0.15995950656136443,0.07009158190114056
112.35016604099471,0.15947366736274962,0.06890756538896024
112.3551660409947,0.15897659708665912,0.06772160876944992
112.3601660409947,0.15846882241703764,0.06653391208297296
112.3651660409947,0.15795018355036025,0.06534455803342681
112.37016604099469,0.15742062120933353,0.13884019815860255
112.37516604099469,0.15688045939364928,0.41927759101052553
112.38016604099468,0.1563295229278333,0.06176773917450718
112.38516604099468,0.1557680409081083,0.06057296181830885
112.39016604099467,0.15519575513521924,0.05937710550799421
112.39516604099467,0.15461322968691638,0.05818033704603559
112.40016604099466,0.15402011215004713,0.05698273917956371
112.40516604099466,0.1534166263740281,0.05578444524764776
112.41016604099465,0.1528028046302525,0.054585572716711155
112.41516604099465,0.15217857426960082,0.05338623690724838
112.42016604099464,0.15154428615934593,0.05218656801411636
112.42516604099464,0.1508997092357117,0.05098667804312245
112.43016604099464,0.5098995823691205,0.050213308697090765
112.43516604099463,0.14958064863130124,0.05141327649569618
112.44016604099463,0.14890592975767106,0.052613098634420444
112.44516604099462,0.14822144433991097,0.05381266049279048
112.45016604099462,0.14752727656702486,0.05501184788395097
112.45516604099461,0.1468232421836886,0.056210529637415185
112.46016604099461,0.1461094293537234,0.05740858285272781
112.4651660409946,0.14538617710510188,0.058605908351156116
112.4701660409946,0.14465331575060486,0.14406929831575543
112.4751660409946,0.14391097658580765,0.06099784600043459
112.48016604099459,0.40712280045793636,0.06219222680659753
112.48516604099459,0.1423980886617691,0.4584759291686665
112.49016604099458,0.14162797444440584,0.06457721247845453
112.49516604099458,0.14084851401855403,0.06576757357260743
112.50016604099457,0.140059901355774,0.06695634461401641
112.50516604099457,0.13926243243534028,0.06814344777275735
112.51016604099456,0.13845584053402776,0.06932869571706547
112.51516604099456,0.13764065427733477,0.07051206527278384
112.52016604099455,0.13681601077183062,0.07169321371977395
112.52516604099455,0.1359838496551622,0.07287248521201165
112.53016604099454,0.13514241575440944,0.07404929742864755
112.53516604099454,0.13429264389797751,0.07522375455185837
112.54016604099454,0.13343432816823703,0.25566416806399594
112.54516604099453,0.13256761996760213,0.07756490109630455
112.55016604099453,0.13169282472049365,0.07873144657883875
112.55516604099452,0.13080975420243116,0.0798950834182614
112.56016604099452,0.12991845257543239,0.08105567170202853
112.56516604099451,0.12901951768949502,0.3231030079213558
112.57016604099451,0.1281123394446644,0.08336755842248313
112.5751660409945,0.12719765142041986,0.08451861430362875
112.5801660409945,0.12627502237777624,0.0856661213902225
112.5851660409945,0.12534473910893695,0.08681004613267755
112.59016604099449,0.12440706350227933,0.08795035882542805
112.59516604099449,0.12346181924500765,0.08908681026803465
112.60016604099448,0.12250929369882047,0.09021938620581751
112.60516604099448,0.12154958657111752,0.09134797944012472
112.61016604099447,0.12058273155667466,0.09247244478399923
112.61516604099447,0.11960867289438416,0.09359257498012544
112.62016604099446,0.11862783341811509,0.09470845929489692
112.62516604099446,0.1176400301637659,0.09581980974467434
112.63016604099445,0.11664545475728842,0.09692657221233361
112.63516604099445,0.1156441849810119,0.09802862001831798
112.64016604099444,0.11463644456539403,0.09912593398099503
112.64516604099444,0.11362206517143393,0.10021820035617898
112.65016604099443,0.11260156929659285,0.10130563862491303
112.65516604099443,0.11157462816970122,0.10238779668006126
112.66016604099443,0.11054152167732044,0.10346470641071479
112.66516604099442,0.10950248561870934,0.10453637773477577
112.67016604099442,0.10845743263474807,0.10560253622601495
112.67516604099441,0.1074065700913492,0.10666316940763487
112.68016604099441,0.3124677091740408,0.10771808182538993
112.6851660409944,0.10528768773611075,0.3995472050688508
112.6901660409944,0.10421992980247312,0.12019573181419341
112.6951660409944,0.10314659331701538,0.11084780335615411
112.70016604099439,0.1020681617004322,0.11187914451691693
112.70516604099438,0.1009843916206029,0.11290414461983007
112.71016604099438,0.09989551057287599,0.11392283444111358
112.71516604099438,0.09880168534471609,0.1149351882807731
112.72016604099437,0.0977030783606879,0.11594118433787402
112.72516604099437,0.09659954888675065,0.11694037777441287
112.73016604099436,0.09549143919439709,0.11793299064568397
112.73516604099436,0.09437870820408006,0.11891870104382853
112.74016604099435,0.09326161239559404,0.1198976312114807
112.74516604099435,0.09214019824443043,0.12086958863857028
112.75016604099434,0.09101445704597483,0.12183426585072767
112.75516604099434,0.08988471402705003,0.12279193007182965
112.76016604099433,0.08875101356116027,0.1237423764125493
112.76516604099433,0.08761335467310508,0.12468529191869286
112.77016604099433,0.08647200426309343,0.12562087746265832
112.77516604099432,0.08532693166192518,0.12654874489198337
112.78016604099432,0.08417838351789027,0.12746908088154976
112.78516604099431,0.3333323157462069,0.12838164038910438
112.79016604099431,0.08187107362445219,0.12928624601135238
112.7951660409943,0.08071263670574011,0.13018312150213754
112.8001660409943,0.4380221758621655,0.13107186689691638
112.8051660409943,0.15245526052641936,0.13195245282902304
112.81016604099429,0.07721921275876319,0.1328248892122409
112.81516604099428,0.07604917662011978,0.13368914503700952
112.82016604099428,0.07487650586705032,0.44291883719828895
112.82516604099428,0.07370137308986954,0.13539237080661823
112.83016604099427,0.07252385213896873,0.13623120325361265
112.83516604099427,0.07134407411078388,0.1370613959359324
112.84016604099426,0.5344305233928509,0.13788278316016536
112.84516604099426,0.06897820435643205,0.13869544694503744
112.85016604099425,0.06779239627645342,0.13949935952618542
112.85516604099425,0.06660477390574841,0.1402941442706949
112.86016604099424,0.06541552298044906,0.14108007255289165
112.86516604099424,0.587492634003668,0.14185682060946414
112.87016604099423,0.33891801545198696,0.14262437226391517
112.87516604099423,0.06183895138184737,0.14338264585880042
112.88016604099423,0.06064422894977572,0.14413154975928535
112.88516604099422,0.05944845778532511,0.1448711830753963
112.89016604099422,0.05825172430233582,0.14560115814299732
112.89516604099421,0.05705416509361086,0.14632152997233694
112.90016604099421,0.07841007737836558,0.14703260575269242
112.9051660409942,0.05465707191213643,0.14773358634146383
112.9101660409942,0.05345776976243514,0.14842509104134796
112.9151660409942,0.05225811140096684,0.1491064330068457
112.92016604099419,0.05105823669041967,0.1497782847800393
112.92516604099418,0.05023422486194547,0.1504398317530434
112.93016604099418,0.05134171873558725,0.15109146180828628
112.93516604099418,0.3241546761077009,0.15173294277035498
112.94016604099417,0.0537411366166495,0.15236427753337942
112.94516604099417,0.05494034876724511,0.15298545911862374
112.95016604099416,0.05613906406392881,0.15359626051599645
112.95516604099416,0.05733716893000984,0.1734788889972324
112.96016604099415,0.05853453092146218,0.1547866923175888
112.96516604099415,0.05973101240665605,0.15536588005546054
112.97016604099414,0.19099607657425843,0.1559349818814445
112.97516604099414,0.062121014824876905,0.1564934709714308
112.98016604099413,0.06331424432158758,0.1570411894849118
112.98516604099413,0.06450615891890821,0.15757833335827331
112.99016604099413,0.06569661156493321,0.4930444249462763
112.99516604099412,0.06688550875254089,0.1586202032091983
113.00016604099412,0.06807269942991787,0.1591247972152603
113.00516604099411,0.06925809202279291,0.15961853230095155
113.01016604099411,0.07044156117990616,0.16010131734025132
113.0151660409941,0.0716228597313162,0.16057244100210388
113.0201660409941,0.07280223111066066,0.16103371111275153
113.0251660409941,0.07397919906797452,0.16148325120976187
113.03016604099409,0.07515376154260542,0.16192161329350732
113.03516604099408,0.07632586568424106,0.1623490315245978
113.04016604099408,0.07749527358969685,0.1627649396134861
113.04516604099408,0.07866193531713636,0.1631695921329947
113.05016604099407,0.07982579459584997,0.16356317491279307
113.05516604099407,0.12977350645576752,0.1639451752519773
113.06016604099406,0.0821443552666234,0.1643158647414047
113.06516604099406,0.08329885042833425,0.16467500828927034
113.07016604099405,0.08445002192141692,0.1650227098510611
113.07516604099405,0.08559777822270928,0.16535900958996141
113.08016604099404,0.08674197419444567,0.16568376880366048
113.08516604099404,0.20042188931376906,0.16599691816708198
113.09016604099403,0.08901912539844715,0.16629823494529486
113.09516604099403,0.09015197289645437,0.16658824443880732
113.10016604099403,0.16964758836105476,0.16686663504209112
113.10516604099402,0.09240547569132375,0.16713315417259503
113.11016604099402,0.09352591778410137,0.3084335819487588
113.11516604099401,0.09464204038531232,0.16763126790172342
113.12016604099401,0.09575363554028289,0.16786256798763466
113.125166040994,0.09686071234761491,0.1680822280060106
113.130166040994,0.09796304936055163,0.16828994399204342
113.135166040994,0.09906057097416177,0.16848578680987109
113.14016604099399,0.10015326785828854,0.1686699779018294
113.14516604099398,0.10124091601829147,0.1688422201016714
113.15016604099398,0.10232342730398275,0.1690025486594203
113.15516604099398,0.1034007332694897,0.16915103760487551
113.16016604099397,0.10447266739220723,0.16928754019903053
113.16516604099397,0.10553918124704516,0.16941217269039419
113.17016604099396,0.10659993442488737,0.16952442622363093
113.17516604099396,0.10765537058012742,0.16962545294571876
113.18016604099395,0.10870483896812344,0.16971409354962377
113.18516604099395,0.10974856583456713,0.16979102489463266
113.19016604099394,0.11078618637095,0.1698557122438796
113.19516604099394,0.11181774576662998,0.16990845163108587
113.20016604099393,0.11284322508998361,0.16994939633589076
113.20516604099393,0.11386231966405973,0.1699781529582899
113.21016604099393,0.11487503347325935,0.16999492430371388
113.21516604099392,0.11588139238126276,0.1699999389995389
113.22016604099392,0.11688094431885473,0.16999255523717796
113.22516604099391,0.11787403515413229,0.1699735797738641
113.23016604099391,0.11886019912972443,0.16994235804313615
113.2351660409939,0.1198394407762396,0.16989908111063132
113.2401660409939,0.12081178252446953,0.16984395990144244
113.2451660409939,0.12177696957256151,0.1697767300082945
113.25016604099389,0.1820999804603776,0.16969779441609484
113.25516604099388,0.12368576745543299,0.1696064387406432
113.26016604099388,0.12462920914000208,0.1695034259126843
113.26516604099388,0.12556523965634372,0.16938854358942684
113.27016604099387,0.12649371827073233,0.16926172683291119
113.27516604099387,0.12741444258872558,0.16912281914980423
113.28016604099386,0.12832743048023887,0.1689720077376593
113.28516604099386,0.12923255737018025,0.16880925784964892
113.29016604099385,0.13012977820333319,0.1686346541287904
113.29516604099385,0.1310190699141288,0.16844831100160174
113.30016604099384,0.1319002957662431,0.16825017298924697
113.30516604099384,0.13277309007432778,0.1680398625780663
113.31016604099383,0.1336378674446013,0.16781812055902043
113.31516604099383,0.22722297978132905,0.16758438078833304
113.32016604099383,0.15502330869874215,0.16733903212093726
113.32516604099382,0.13618138069605124,0.1670818764838962
113.33016604099382,0.137012038998267,0.1668129365770099
113.33516604099381,0.1378341134063608,0.16653247289011305
113.34016604099381,0.16720929818735053,0.16624022884929912
113.3451660409938,0.13945169138114924,0.1659364278001951
113.3501660409938,0.1402469903667575,0.16562085572018553
113.3551660409938,0.1410334690598534,0.16529398354737784
113.36016604099379,0.14181062988763105,0.16495531091441873
113.36516604099378,0.14257888198102045,0.16460548341669312
113.37016604099378,0.14333758207221872,0.16424383102688797
113.37516604099378,0.14408711195619828,0.16387095614487424
113.38016604099377,0.1448272678755196,0.16348673571110114
113.38516604099377,0.14555787030279507,0.16309108131954828
113.39016604099376,0.1462787415978812,0.16268391313765937
113.39516604099376,0.1469903699839934,0.16226592681380883
113.40016604099375,0.14769216646594144,0.41004659977996794
113.40516604099375,0.1483840432196453,0.25894623552042106
113.41016604099374,0.7395161031921493,0.16094420757037803
113.41516604099374,0.14973854589708108,0.16048138282288138
113.42016604099373,0.15040071288710707,0.16000738833718417
113.42516604099373,0.1510530093855807,0.1595225785227475
113.43016604099373,0.15169510284647142,0.1590267099038302
113.43516604099372,0.1523270227672668,0.15851993450017426
113.44016604099372,0.15294872488523914,0.2563956491105951
113.44516604099371,0.15356011272294617,0.15747389148939828
