timestamp,sample_timestamp,unityTimestamp,localTimestamp,emg1,emg2,rms1,rms2,left_processed,right_processed
86852.7521465,86852.7521465,86852.7521465,86852.7521465,0.12900824291980142,0.1505518233814379,0.12900824291980142,0.1505518233814379,0.0025480504468468083,0.03889808932359072
86852.75714650001,86852.75714650001,86852.75714650001,86852.75714650001,0.1281011497789446,0.15120176552461706,0.12855549641291517,0.1508771444275722,0.0,0.04194755096353784
86852.76214650001,86852.76214650001,86852.76214650001,86852.76214650001,0.12718614520565347,0.15184145584944478,0.1281006724523277,0.15119926491853483,0.0,0.04496701156193409
86852.76714650002,86852.76714650002,86852.76714650002,86852.76714650002,0.12626348643368807,0.15247104578794218,0.12764385497802644,0.15151821090168055,0.0,0.04795671527884834
86852.77214650002,86852.77214650002,86852.77214650002,86852.77214650002,0.7724270476957003,0.1530904410506363,0.36381736046167484,0.15183395936381489,1.0,0.05091644639551737
86852.77714650003,86852.77714650003,86852.77714650003,86852.77714650003,0.33385420968113516,0.15369950826484022,0.358997212660562,0.1521464726950736,1.0,0.05384585236838559
86852.78214650003,86852.78214650003,86852.78214650003,86852.78214650003,0.12345013941147369,0.1542981073651439,0.33562605234930076,0.15245570825549026,1.0,0.05674453350323282
86852.78714650004,86852.78714650004,86852.78714650004,86852.78714650004,0.12249502641505987,0.15488270573264104,0.31692249853186805,0.15276119164927246,1.0,0.059608042956584194
86852.79214650004,86852.79214650004,86852.79214650004,86852.79214650004,0.1215376898461141,0.1554640980203189,0.3015313454607968,0.15306387162304255,1.0,0.062445273993924195
86852.79714650004,86852.79714650004,86852.79714650004,86852.79714650004,0.12057067498510445,0.15603128605722513,0.28858753582317953,0.15336319682205016,1.0,0.0652510583816532
86852.80214650005,86852.80214650005,86852.80214650005,86852.80214650005,0.11959646754638073,0.15658766323338813,0.2775101920117729,0.15365912618865823,1.0,0.06802501125783046
86852.80714650005,86852.80714650005,86852.80714650005,86852.80714650005,0.11861556951456698,0.15713379310858783,0.2678931109456697,0.15395167710691302,1.0,0.07076729557527675
86852.81214650006,86852.81214650006,86852.81214650006,86852.81214650006,0.1176276529835589,0.15766896769022407,0.2594427299264873,0.15424080323683567,1.0,0.07347747695696819
86852.81714650006,86852.81714650006,86852.81714650006,86852.81714650006,0.1166330036336205,0.15819342197836656,0.2519410573057583,0.1545264861111659,1.0,0.07615538229636107
86852.82214650007,86852.82214650007,86852.82214650007,86852.82214650007,0.1789049568919054,0.15870711592075198,0.24774276075387847,0.15480870720171264,1.0,0.07880083791576506
86852.82714650007,86852.82714650007,86852.82714650007,86852.82714650007,0.1146237994870154,0.1592097949437467,0.2415814753864291,0.155087434248397,1.0,0.0814135414189035
86852.83214650008,86852.83214650008,86852.83214650008,86852.83214650008,0.11360948969001253,0.1597016871032687,0.24109771584936676,0.15565839471583448,1.0,0.0867655531134012
86852.83714650008,86852.83714650008,86852.83714650008,86852.83714650008,0.11258878611663375,0.16018255295171907,0.24061328771353235,0.1562188068664704,1.0,0.09201868805880878
86852.84214650009,86852.84214650009,86852.84214650009,86852.84214650009,0.5148606006170684,0.16065241842879313,0.2710190480073006,0.15676862364107624,1.0,0.09717250513607184
86852.84714650009,86852.84714650009,86852.84714650009,86852.84714650009,0.4676122371503218,0.324879915048384,0.29346421485963103,0.1723952510097173,1.0,0.24365181008319006
86852.8521465001,86852.8521465001,86852.8521465001,86852.8521465001,0.10948954600738363,0.16155887682951864,0.2226662781950663,0.17287758470095832,0.9355374167063909,0.24817306103381698
86852.8571465001,86852.8571465001,86852.8571465001,86852.8571465001,0.10844445222945978,0.16199544288149725,0.20820451319277017,0.1733503557369639,0.7914742519727812,0.252604674530418
86852.8621465001,86852.8621465001,86852.8621465001,86852.8621465001,0.10739350113040606,0.16242078595991574,0.20764743800877802,0.1738135026259256,0.7859248592127879,0.2569460741672759
86852.86714650011,86852.86714650011,86852.86714650011,86852.86714650011,0.1063367537852877,0.16283477399141025,0.20709022941324928,0.17426715306664436,0.7803741374526227,0.26119845695454247
86852.87214650011,86852.87214650011,86852.87214650011,86852.87214650011,0.10527440936161156,0.16323754939475962,0.20653285167077864,0.17471084360422282,0.7748217307083805,0.2653574786054028
86852.87714650012,86852.87714650012,86852.87714650012,86852.87714650012,0.10420657550145945,0.16362907981639244,0.20597554827873368,0.17514472149826465,0.7692700646176907,0.26942451948709084
86852.88214650012,86852.88214650012,86852.88214650012,86852.88214650012,0.10313327172428328,0.1640091441654014,0.20541847234769647,0.17556873272885348,0.7637206644158895,0.2733990732331577
86852.88714650013,86852.88714650013,86852.88714650013,86852.88714650013,0.10205470967251425,0.16437792615105104,0.2048617660371344,0.17598280318352086,0.7581749462470485,0.27728044513561506
86852.89214650013,86852.89214650013,86852.89214650013,86852.89214650013,0.10097087930539116,0.45964178844808,0.20430558372554042,0.20644766627654787,0.752634447976999,0.5628489088804429
86852.89714650014,86852.89714650014,86852.89714650014,86852.89714650014,0.09988203473700638,0.16508105359992772,0.20375007791249206,0.20678443154601886,0.7471006887544588,0.5660056452278797
86852.90214650014,86852.90214650014,86852.90214650014,86852.90214650014,0.09878814218623268,0.16541533111499399,0.2003087650081834,0.20711275630694545,0.7128195046974228,0.5690832627868654
86852.90714650015,86852.90714650015,86852.90714650015,86852.90714650015,0.09768937164880012,0.1657380683194252,0.19974706182913493,0.20743258689348743,0.7072240094309872,0.5720812585099547
86852.91214650015,86852.91214650015,86852.91214650015,86852.91214650015,0.22380191642738684,0.1660492167193266,0.20548150783569644,0.20774385718876548,0.7643486024227898,0.5749990126374072
86852.91714650016,86852.91714650016,86852.91714650016,86852.91714650016,0.09547758299773527,0.20926836754864536,0.20493934088754992,0.21045411652261098,0.7589477204176163,0.6004041684706363
86852.92214650016,86852.92214650016,86852.92214650016,86852.92214650016,0.09436491365747543,0.16663677655360806,0.16121131977093545,0.2107447476116191,0.323344105741441,0.6031284568861497
86852.92714650017,86852.92714650017,86852.92714650017,86852.92714650017,0.09324774501960736,0.16691307246617043,0.1134293203869434,0.19889170936913328,0.0,0.492021641428636
86852.93214650017,86852.93214650017,86852.93214650017,86852.93214650017,0.0921261944152789,0.1671775193628258,0.11246072830871906,0.19918170805672405,0.0,0.49474000190347
86852.93714650018,86852.93714650018,86852.93714650018,86852.93714650018,0.09100046222759138,0.1674303294553714,0.11148977853763326,0.1994624082530131,0.0,0.4973712011175403
86852.94214650018,86852.94214650018,86852.94214650018,86852.94214650018,0.08987069470704348,0.1676715839552231,0.11051665857915048,0.19973377362937447,0.0,0.4999148985372341
86852.94714650018,86852.94714650018,86852.94714650018,86852.94714650018,0.104708723935281,0.1679009817754826,0.1104194618371718,0.19999575953504936,0.0,0.5023706756197676
86852.95214650019,86852.95214650019,86852.95214650019,86852.95214650019,0.08759920339628018,0.16811845391953062,0.10945039972739848,0.20024831121758357,0.0,0.504738019132103
86852.9571465002,86852.9571465002,86852.9571465002,86852.9571465002,0.0864577856968715,0.23289493112996013,0.10847988821022934,0.204489570564182,0.0,0.5444943086073945
86852.9621465002,86852.9621465002,86852.9621465002,86852.9621465002,0.08531268152427407,0.16851810048087112,0.10750812766657722,0.204718572425078,0.0,0.5466409031747518
86852.9671465002,86852.9671465002,86852.9671465002,86852.9671465002,0.08416407281495406,0.40902206344384906,0.10653531914828433,0.22511581021086877,0.0,0.7378384753200684
86852.97214650021,86852.97214650021,86852.97214650021,86852.97214650021,0.0830120650333776,0.16887044606791496,0.10556167394283976,0.19812885674128863,0.0,0.48487089033771247
86852.97714650021,86852.97714650021,86852.97714650021,86852.97714650021,0.08185672566502236,0.16902871965991775,0.10458739609867697,0.19833678046916342,0.0,0.48681990482577986
86852.98214650022,86852.98214650022,86852.98214650022,86852.98214650022,0.08069820008302846,0.16917508590078306,0.1036127034993954,0.1985348888910373,0.0,0.4886769135875354
86852.98714650022,86852.98714650022,86852.98714650022,86852.98714650022,0.07953664214301517,0.16930968232663893,0.10263781629274936,0.19872315777088567,0.0,0.4904416894417741
86852.99214650023,86852.99214650023,86852.99214650023,86852.99214650023,0.07837208430047292,0.16943216217934412,0.0882493722125461,0.19890154759305273,0.0,0.4921138619806233
86852.99714650023,86852.99714650023,86852.99714650023,86852.99714650023,0.0772047134754826,0.1695427977835389,0.08712484794186084,0.19652301404389924,0.0,0.4698182038802341
86853.00214650024,86853.00214650024,86853.00214650024,86853.00214650024,0.07603460445580913,0.16964140022359284,0.08599722023394366,0.19668361493653042,0.0,0.4713236283439741
86853.00714650024,86853.00714650024,86853.00714650024,86853.00714650024,0.07486192178619962,0.16972817567450973,0.08486662903849777,0.19683412909251188,0.0,0.47273450277213835
86853.01214650024,86853.01214650024,86853.01214650024,86853.01214650024,0.07368674562369863,0.1698029487001294,0.08373321338218254,0.19697453966450099,0.0,0.474050669242804
86853.01714650025,86853.01714650025,86853.01714650025,86853.01714650025,0.07250916598994334,0.16986556111226503,0.08259710625977601,0.1971048106413063,0.0,0.4752717901978937
86853.02214650025,86853.02214650025,86853.02214650025,86853.02214650025,0.07132935913638949,0.16991630653915943,0.0814584430505446,0.19722491811523518,0.0,0.4763976415338871
86853.02714650026,86853.02714650026,86853.02714650026,86853.02714650026,0.07014741081304814,0.16995500744177353,0.07910609548381874,0.1973348452000973,0.0,0.4774280649647152
86853.03214650026,86853.03214650026,86853.03214650026,86853.03214650026,0.06896348025580033,0.16998190941680533,0.07794498486771376,0.19743459250202197,0.0,0.47836306617205154
86853.03714650027,86853.03714650027,86853.03714650027,86853.03714650027,0.06777763712957019,0.16999672057135953,0.0767811785383109,0.19338199391392732,0.0,0.44037522590364947
86853.04214650027,86853.04214650027,86853.04214650027,86853.04214650027,0.06659000483957313,0.16999945601764466,0.07561479896463048,0.1934630122883044,0.0,0.4411346677772373
86853.04714650028,86853.04714650028,86853.04714650028,86853.04714650028,0.06540072679734946,0.16999028860374013,0.07444596575377858,0.1696401787266125,0.0,0.21782659114195424
86853.05214650028,86853.05214650028,86853.05214650028,86853.05214650028,0.06420989816335497,0.16996904174824157,0.07327479834211721,0.1697087378812578,0.0,0.21846924403712453
86853.05714650029,86853.05714650029,86853.05714650029,86853.05714650029,0.06301764733819687,0.1699357837550131,0.07210142053588893,0.1697653442885486,0.0,0.21899985547361075
86853.06214650029,86853.06214650029,86853.06214650029,86853.06214650029,0.061824095887941376,0.16989053668352597,0.07092595471176727,0.16980999284266776,0.0,0.21941837759101884
86853.0671465003,86853.0671465003,86853.0671465003,86853.0671465003,0.0606293735451595,0.16983342276659555,0.06974852163375177,0.16984267751118604,0.0,0.21972475384317106
86853.0721465003,86853.0721465003,86853.0721465003,86853.0721465003,0.08276105080721101,0.16976426523850222,0.07006466132019423,0.16986340281199125,0.0,0.21991902657938922
86853.0771465003,86853.0771465003,86853.0771465003,86853.0771465003,0.058236835421338805,0.16968297660599074,0.0689093015635757,0.16987215084209287,0.0,0.2200010279824247
86853.08214650031,86853.08214650031,86853.08214650031,86853.08214650031,0.05703926233458668,0.16958962581299805,0.06775326829967297,0.16986891979940583,0.0,0.21997074116007417
86853.08714650031,86853.08714650031,86853.08714650031,86853.08714650031,0.055841011996051744,0.3050672560866562,0.06659673280828969,0.181305263254324,0.0,0.32717158500784155
86853.09214650032,86853.09214650032,86853.09214650032,86853.09214650032,0.054642167393784774,0.1693678260275728,0.06543987083035578,0.18127982424375774,0.0,0.32693312737406155
86853.09714650032,86853.09714650032,86853.09714650032,86853.09714650032,0.05344285082369362,0.169238744878915,0.0642828642895527,0.18124317896850783,0.0,0.3265896255856351
86853.10214650033,86853.10214650033,86853.10214650033,86853.10214650033,0.05224319387211056,0.1690978272986625,0.063125896078519,0.1811953301569517,0.0,0.32614110521755135
86853.10714650033,86853.10714650033,86853.10714650033,86853.10714650033,0.05104331331877516,0.16894505176039956,0.06196915597811534,0.18113628996745423,0.0,0.3255876802386664
86853.11214650034,86853.11214650034,86853.11214650034,86853.11214650034,0.050184309247507955,0.1687804461327839,0.060830360413148724,0.18106605806973064,0.0,0.3249293475529895
86853.11714650034,86853.11714650034,86853.11714650034,86853.11714650034,0.05135664278283254,0.16860385128239005,0.059816918922948194,0.18098464227331806,0.0,0.3241661803647732
86853.12214650035,86853.12214650035,86853.12214650035,86853.12214650035,0.2475025569652372,0.16841537330754805,0.08443648041233016,0.1808920559928006,0.0,0.3232983044182939
86853.12714650035,86853.12714650035,86853.12714650035,86853.12714650035,0.053756056475407085,0.16821510743279147,0.08392137917900996,0.18078830833496307,0.0,0.3223258050778138
86853.13214650036,86853.13214650036,86853.13214650036,86853.13214650036,0.054955259937871516,0.16800300522324366,0.08350970591254844,0.1806734162621034,0.0,0.3212488413428117
86853.13714650036,86853.13714650036,86853.13714650036,86853.13714650036,0.056153964956142055,0.488298433129306,0.0832030571891215,0.21386960435876773,0.0,0.6324199241735947
86853.14214650037,86853.14214650037,86853.14214650037,86853.14214650037,0.05735205828659985,0.16754338191983437,0.08300264279196466,0.21375384690511018,0.0,0.631334848619273
86853.14714650037,86853.14714650037,86853.14714650037,86853.14714650037,0.058549418209498,0.16729598746526939,0.08290926245126352,0.21362874762673778,0.0,0.6301622056098066
86853.15214650038,86853.15214650038,86853.15214650038,86853.15214650038,0.05974592613926257,0.16703688587085708,0.08166368415754198,0.21349433313476965,0.0,0.628902244589822
86853.15714650038,86853.15714650038,86853.15714650038,86853.15714650038,0.060941449057414,0.16676595595648633,0.08178693667704888,0.21335062924777892,0.0,0.6275552075748585
86853.16214650038,86853.16214650038,86853.16214650038,86853.16214650038,0.06213587741329743,0.16648335877986023,0.08201868612947913,0.21319766702141738,0.0,0.6261213856712553
86853.16714650039,86853.16714650039,86853.16714650039,86853.16714650039,0.06332910492370669,0.166189232001376,0.08235798189162923,0.20337845781801844,0.0,0.534079071913229
86853.1721465004,86853.1721465004,86853.1721465004,86853.1721465004,0.06452098639623355,0.1658833703206094,0.0828034518182377,0.20319888436679875,0.0,0.5323958043916395
86853.1771465004,86853.1771465004,86853.1771465004,86853.1771465004,0.06571143175825107,0.16556604655118712,0.08335332930055911,0.20300969015187825,0.0,0.530622354724747
86853.1821465004,86853.1821465004,86853.1821465004,86853.1821465004,0.06690028258519129,0.16523699486445728,0.08400548218413287,0.2028108937538388,0.0,0.528758897081337
86853.18714650041,86853.18714650041,86853.18714650041,86853.18714650041,0.06808745231555659,0.1648964892613047,0.08475745465742349,0.20260252954678185,0.0,0.5268057536738986
86853.19214650041,86853.19214650041,86853.19214650041,86853.19214650041,0.06927280900594486,0.16454447120700738,0.08559405466101595,0.20238462819407843,0.0,0.5247632119316488
86853.19714650042,86853.19714650042,86853.19714650042,86853.19714650042,0.07045619009637442,0.1641807350359661,0.08643930133986391,0.20215721894694078,0.0,0.5226315460466532
86853.20214650042,86853.20214650042,86853.20214650042,86853.20214650042,0.07163764649884809,0.16380625336764826,0.06295955137504168,0.20192037561774923,0.0,0.5204114479139647
86853.20714650043,86853.20714650043,86853.20714650043,86853.20714650043,0.07281690047798664,0.16567562707786876,0.0641458636317349,0.20178910718755771,0.0,0.519180977130836
86853.21214650043,86853.21214650043,86853.21214650043,86853.21214650043,0.0739938254262828,0.16302248607223832,0.06533092431199516,0.20153362338483968,0.0,0.5167861488057884
86853.21714650044,86853.21714650044,86853.21714650044,86853.21714650044,0.07516837422675626,0.16261362528557607,0.0665146090376732,0.16542759991268477,0.0,0.17833914435370016
86853.22214650044,86853.22214650044,86853.22214650044,86853.22214650044,0.07634041189129954,0.16219352722779065,0.06769679245770069,0.16509402784008373,0.0,0.17521234007330738
86853.22714650045,86853.22714650045,86853.22714650045,86853.22714650045,0.07750979741576151,0.16176213315180485,0.06887734826656443,0.16474898496562126,0.0,0.17197801194632825
86853.23214650045,86853.23214650045,86853.23214650045,86853.23214650045,0.07867647105999845,0.16131971868500536,0.0700561547420863,0.1643925141145453,0.0,0.16863656140375638
86853.23714650045,86853.23714650045,86853.23714650045,86853.23714650045,0.07984021614565141,0.16086593663817722,0.07123308438540041,0.16402464461453897,0.0,0.16518826335447245
86853.24214650046,86853.24214650046,86853.24214650046,86853.24214650046,0.081001035448959,0.16040128593538233,0.0724080181414688,0.1636454262334258,0.0,0.1616335843070856
86853.24714650046,86853.24714650046,86853.24714650046,86853.24714650046,0.08215873249372987,0.15992551201126223,0.07358083108618661,0.16325488449675302,0.0,0.15797276353039852
86853.25214650047,86853.25214650047,86853.25214650047,86853.25214650047,0.08341584035678451,0.15943876620700972,0.07475855469034481,0.16285306732862367,0.0,0.15420625025053883
86853.25714650047,86853.25714650047,86853.25714650047,86853.25714650047,0.08446433674706302,0.1589409483597979,0.07592664877557417,0.1624399992898112,0.0,0.15033427469280966
86853.26214650048,86853.26214650048,86853.26214650048,86853.26214650048,0.0856120516815537,0.15843237987399364,0.07709226270019619,0.16201574160191246,0.0,0.14635741073004632
86853.26714650048,86853.26714650048,86853.26714650048,86853.26714650048,0.5505247899596453,0.15791285611991887,0.15683054443591843,0.16158032568708844,0.27970431774535004,0.14227595290413528
86853.27214650049,86853.27214650049,86853.27214650049,86853.27214650049,0.08789665876195309,0.157382686156714,0.15741271693445832,0.16113380567160604,0.2855037213829568,0.13809040857842284
86853.27714650049,86853.27714650049,86853.27714650049,86853.27714650049,0.08903331577221477,0.1568416531156249,0.15799981642345048,0.1606762357348097,0.2913522060170431,0.13380128561378846
86853.2821465005,86853.2821465005,86853.2821465005,86853.2821465005,0.5750744769432499,0.15628985352630229,0.21286758992874588,0.1602076140027872,0.837926230128537,0.12940856644474233
86853.2871465005,86853.2871465005,86853.2871465005,86853.2871465005,0.09129485597698199,0.2257392999660884,0.21331230379507535,0.16472960638061387,0.8423563178096858,0.1717963629189484
86853.2921465005,86853.2921465005,86853.2921465005,86853.2921465005,0.09241945510922624,0.15515478915275138,0.21376103665765298,0.1642540275618937,0.8468264413591032,0.16733843011167485
86853.29714650051,86853.29714650051,86853.29714650051,86853.29714650051,0.09353984335788645,0.15457141652705353,0.21421366531147054,0.16376799534774708,0.8513353734505678,0.16278251031973218
86853.30214650051,86853.30214650051,86853.30214650051,86853.30214650051,0.09465591179795338,0.15397766582911315,0.2146700656893859,0.1632715686561628,0.8558818781695743,0.15812915582262632
86853.30714650052,86853.30714650052,86853.30714650052,86853.30714650052,0.09576742957151928,0.1533733194558936,0.21513010968955912,0.16276479761879617,0.8604646794093359,0.15337883653941628
86853.31214650052,86853.31214650052,86853.31214650052,86853.31214650052,0.1923458920884361,0.15275879661479289,0.21955955636021476,0.162247740317237,0.9045893146313913,0.14853209690945554
86853.31714650053,86853.31714650053,86853.31714650053,86853.31714650053,0.09797674297492692,0.15213394722291024,0.22001809054531457,0.16172046796400308,0.9091570756089439,0.14358960445746774
86853.32214650053,86853.32214650053,86853.32214650053,86853.32214650053,0.0990742625433801,0.1514989161099995,0.2204798608192496,0.16118302973419663,0.9137570733984548,0.1385518201360704
86853.32714650054,86853.32714650054,86853.32714650054,86853.32714650054,0.10016681020519283,0.1508536034029328,0.22094473813768992,0.1606354851551144,0.9183880225043731,0.13341930193623933
86853.33214650054,86853.33214650054,86853.33214650054,86853.33214650054,0.10125438464202774,0.1501982953021577,0.22141018000513846,0.16007790158200402,0.9230245954547365,0.1281926812258077
86853.33714650055,86853.33714650055,86853.33714650055,86853.33714650055,0.10233686156352512,0.14953302087540835,0.2218808934444159,0.15951035477065775,0.9277136820035901,0.12287266811678683
86853.34214650055,86853.34214650055,86853.34214650055,86853.34214650055,0.6050099456313534,0.1488577442721521,0.2676758423133758,0.15893289887210138,1.0,0.11745977020460562
86853.34714650056,86853.34714650056,86853.34714650056,86853.34714650056,0.10448590559913466,0.1481724904540171,0.2310635011527626,0.15834560269818618,1.0,0.11195463251086141
86853.35214650056,86853.35214650056,86853.35214650056,86853.35214650056,0.1055523334862925,0.14747751259022646,0.231524963222442,0.15774853111826567,1.0,0.10635786310136348
86853.35714650057,86853.35714650057,86853.35714650057,86853.35714650057,0.49367642231062026,0.14677290751763605,0.26142044872083803,0.15714176866540477,1.0,0.10067025436363737
86853.36214650057,86853.36214650057,86853.36214650057,86853.36214650057,0.10766843814041578,0.14605841933360228,0.2199903768762558,0.1565253795099262,0.9088810015010911,0.0948924078109878
86853.36714650058,86853.36714650058,86853.36714650058,86853.36714650058,0.10871790964610396,0.1453344535242459,0.2204848475293248,0.15045077739987636,0.9138067493014255,0.03795091468394088
86853.37214650058,86853.37214650058,86853.37214650058,86853.37214650058,0.109761456712387,0.14460086890085597,0.22098123641180098,0.14979222806388398,0.9187516058481019,0.03177787127963406
86853.37714650058,86853.37714650058,86853.37714650058,86853.37714650058,0.11079911722896713,0.14385796469705664,0.22147940813153388,0.14912372728146792,0.9237142224107492,0.02551154600963913
86853.38214650059,86853.38214650059,86853.38214650059,86853.38214650059,0.1118305790336914,0.14310549089683186,0.22197922036609385,0.1484453259123799,0.9286931812219216,0.01915241561797189
86853.3871465006,86853.3871465006,86853.3871465006,86853.3871465006,0.4716049724647917,0.14234381363266477,0.2502044461380786,0.1477571112337521,1.0,0.012701298214218695
86853.3921465006,86853.3921465006,86853.3921465006,86853.3921465006,0.11387497849424916,0.1415728831505645,0.2471850023767588,0.14705914074417858,1.0,0.006158732772906907
86853.3971465006,86853.3971465006,86853.3971465006,86853.3971465006,0.11488759568119826,0.140792731298729,0.24763967319946484,0.14635148387349692,1.0,0.0
86853.40214650061,86853.40214650061,86853.40214650061,86853.40214650061,0.1158938064763602,0.1400036146101989,0.24809551950288083,0.14563421641071495,1.0,0.0
86853.40714650061,86853.40714650061,86853.40714650061,86853.40714650061,0.1168933759332387,0.13920542645068554,0.24855241653281804,0.14490741460642104,1.0,0.0
86853.41214650062,86853.41214650062,86853.41214650062,86853.41214650062,0.11788631438442176,0.20192612119245212,0.24901023986710397,0.1487836456559553,1.0,0.022323723138125636
86853.41714650062,86853.41714650062,86853.41714650062,86853.41714650062,0.11887236769576101,0.13758239715259712,0.24946886072034205,0.1480612126598657,1.0,0.015551853518297708
86853.42214650063,86853.42214650063,86853.42214650063,86853.42214650063,0.11985161496500639,0.13675774553018075,0.200636919397103,0.1473299901669853,0.7160884666658598,0.008697593799162196
86853.42714650063,86853.42714650063,86853.42714650063,86853.42714650063,0.3457687841969632,0.13592439506014967,0.2168988131679621,0.14659006836387006,0.8780838995068567,0.0017617893623686856
86853.43214650064,86853.43214650064,86853.43214650064,86853.43214650064,0.12178879161496403,0.13508217897095298,0.217429979694234,0.14584151257497938,0.8833751990655991,0.0
86853.43714650064,86853.43714650064,86853.43714650064,86853.43714650064,0.12274694217437096,0.13423192708440715,0.1816182705197058,0.14508443070117372,0.5266311807951425,0.0
86853.44214650065,86853.44214650065,86853.44214650065,86853.44214650065,0.12369766686606615,0.1333730709368522,0.1822552741352113,0.14431891479961903,0.5329767932969294,0.0
86853.44714650065,86853.44714650065,86853.44714650065,86853.44714650065,0.1246410575221271,0.13362578946150083,0.18289128747428623,0.14360991760039007,0.5393125410030618,0.0
86853.45214650065,86853.45214650065,86853.45214650065,86853.45214650065,0.12557689611224057,0.131630411719009,0.18352614731993766,0.1428281504408109,0.5456367980015896,0.0
86853.45714650066,86853.45714650066,86853.45714650066,86853.45714650066,0.126505159626573,0.13074672749499047,0.18415968937226357,0.1420382170573637,0.5519479275929918,0.0
86853.46214650066,86853.46214650066,86853.46214650066,86853.46214650066,0.12742576017547444,0.1298549577589561,0.18479175864069003,0.14124022315878923,0.5582443858140953,0.0
86853.46714650067,86853.46714650067,86853.46714650067,86853.46714650067,0.1283387637685346,0.5864155696585606,0.1458654116849723,0.20043737632761957,0.1704734095142563,0.5065102586086391
86853.47214650067,86853.47214650067,86853.47214650067,86853.47214650067,0.12924377103113524,0.12804768678013487,0.14666371714736276,0.19986801865727805,0.1784258559354115,0.501173271052047
86853.47714650068,86853.47714650068,86853.47714650068,86853.47714650068,0.35856276908101614,0.12713226888363555,0.16947198045867085,0.19929494767754424,0.4056339867674936,0.49580147605006053
86853.48214650068,86853.48214650068,86853.48214650068,86853.48214650068,0.1310301048463126,0.12620921391753007,0.17015976841005218,0.19871829500112737,0.41248549548208746,0.49039610730063055
86853.48714650069,86853.48714650069,86853.48714650069,86853.48714650069,0.13191121249945745,0.12527854555664109,0.17084460322391826,0.19813819916821182,0.4193075860491542,0.48495846343777715
86853.49214650069,86853.49214650069,86853.49214650069,86853.49214650069,0.13278396288394054,0.12434019709085968,0.17152631957148548,0.1941047175023569,0.4260986115198059,0.4471498194486708
86853.4971465007,86853.4971465007,86853.4971465007,86853.4971465007,0.1336485673192253,0.12339453503273379,0.17220477502030743,0.19350768023782772,0.4328571530306472,0.44155337170133024
86853.5021465007,86853.5021465007,86853.5021465007,86853.5021465007,0.13450475852780777,0.2700072725200816,0.17287981249512963,0.20207127505345143,0.43958164585162934,0.5218259338383509
86853.5071465007,86853.5071465007,86853.5071465007,86853.5071465007,0.13535248913896716,0.12148119360561609,0.1534933054901514,0.20149550901555777,0.24645988292545623,0.516428876171764
86853.51214650071,86853.51214650071,86853.51214650071,86853.51214650071,0.13619169216482577,0.12051375577350887,0.15424793040272303,0.20091718018721605,0.25397719862479395,0.5110077956783253
86853.51714650072,86853.51714650072,86853.51714650072,86853.51714650072,0.13702238054895965,0.11953935099611111,0.15499740027951237,0.20033641376723893,0.2614431616179444,0.5055638659340486
86853.52214650072,86853.52214650072,86853.52214650072,86853.52214650072,0.13784429958000538,0.11855793634324549,0.1557415815608327,0.1997533584068013,0.26885644142891485,0.5000984803503375
86853.52714650072,86853.52714650072,86853.52714650072,86853.52714650072,0.1386573774835654,0.11756962197548175,0.1564803339767289,0.1991213875251389,0.27621564073630966,0.4941745753829422
86853.53214650073,86853.53214650073,86853.53214650073,86853.53214650073,0.1394612804431709,0.11657432218066362,0.1572135113963575,0.19853403971698874,0.28351930383456564,0.4886689536854096
86853.53714650073,86853.53714650073,86853.53714650073,86853.53714650073,0.14025688962358526,0.11557285033257006,0.1579410195143863,0.19794484961171877,0.2907664912861651,0.48314606284878175
86853.54214650074,86853.54214650074,86853.54214650074,86853.54214650074,0.14104314026357848,0.1145645746040654,0.1586627109198578,0.19735395668451353,0.2979557346334858,0.477607210271489
86853.54714650074,86853.54714650074,86853.54714650074,86853.54714650074,0.14182030566717083,0.11354985648976239,0.15937845176593587,0.1351359725136587,0.3050857005400502,0.0
86853.55214650075,86853.55214650075,86853.55214650075,86853.55214650075,0.14258830537851563,0.11252879469654135,0.1600881254725964,0.1342698348060515,0.31215522767546655,0.0
86853.55714650075,86853.55714650075,86853.55714650075,86853.55714650075,0.14334712891285006,0.11150153415960251,0.13739370133711268,0.1333988837448504,0.08608112384059531,0.0
86853.56214650076,86853.56214650076,86853.56214650076,86853.56214650076,0.1440964688037028,0.1104680247610795,0.13820893843639606,0.1325232559229906,0.09420223744687815,0.0
86853.56714650076,86853.56714650076,86853.56714650076,86853.56714650076,0.14483641754767587,0.3762207287762834,0.13901537470825304,0.1594611897435897,0.10223568021553356,0.12241180994037137
86853.57214650077,86853.57214650077,86853.57214650077,86853.57214650077,0.7351997090945259,0.10838304674575053,0.22804761316690095,0.15873175815671614,0.989144438146102,0.11557433763549468
86853.57714650077,86853.57714650077,86853.57714650077,86853.57714650077,0.1462879359096778,0.10733176186332785,0.22853195107360813,0.15800044157159363,0.9939692469871811,0.10871919592398142
86853.58214650078,86853.58214650078,86853.58214650078,86853.58214650078,0.14699903147148385,0.10627459913985675,0.22901239428400633,0.14530498008449777,0.9987552581935416,0.0
86853.58714650078,86853.58714650078,86853.58714650078,86853.58714650078,0.14770084605314185,0.10521205237942725,0.22948884387097537,0.1445096215143967,1.0,0.0
86853.59214650079,86853.59214650079,86853.59214650079,86853.59214650079,0.15256934722373997,0.10414390383463956,0.23013193227979983,0.14371214256697062,1.0,0.0
86853.59714650079,86853.59714650079,86853.59714650079,86853.59714650079,0.5691622148922301,0.5060257773325754,0.2683912482467381,0.1891136083197568,1.0,0.40036466314235397
86853.6021465008,86853.6021465008,86853.6021465008,86853.6021465008,0.14974675437583468,0.10199134468741033,0.2687895126402895,0.18850887905956037,1.0,0.39469611294114315
86853.6071465008,86853.6071465008,86853.6071465008,86853.6071465008,0.1504088864170327,0.10090724555428157,0.26918416076046586,0.18790443314730593,1.0,0.3890302187583181
86853.6121465008,86853.6121465008,86853.6121465008,86853.6121465008,0.2621069015496793,0.09981809303790261,0.27484227039865355,0.18730044298005677,1.0,0.38336859659209865
86853.61714650081,86853.61714650081,86853.61714650081,86853.61714650081,0.1517029312241023,0.09872386873040635,0.275221974256836,0.1866970496505488,1.0,0.3777125690033548
86853.62214650081,86853.62214650081,86853.62214650081,86853.62214650081,0.15233475400077043,0.09762482837737453,0.275597858264804,0.1860944281361302,1.0,0.3720637761771204
86853.62714650082,86853.62714650082,86853.62714650082,86853.62714650082,0.15295634640039854,0.09652102655715959,0.2759698258513715,0.18549274203992044,1.0,0.36642375167983093
86853.63214650082,86853.63214650082,86853.63214650082,86853.63214650082,0.1535676594137756,0.09541257942358519,0.2763377821699931,0.18489215577401824,1.0,0.3607940366610495
86853.63714650083,86853.63714650083,86853.63714650083,86853.63714650083,0.15416859392663743,0.0942995808471844,0.27670163010676413,0.18429283204594374,1.0,0.3551761562921325
86853.64214650083,86853.64214650083,86853.64214650083,86853.64214650083,0.15475910068307305,0.09318214770930876,0.2770612816443306,0.18369493992305147,1.0,0.34957169535961125
86853.64714650084,86853.64714650084,86853.64714650084,86853.64714650084,0.7154671757475601,0.09206034491687895,0.32778832273154296,0.15945892213956558,1.0,0.12239055410227459
86853.65214650084,86853.65214650084,86853.65214650084,86853.65214650084,0.15590853266561358,0.09093440161428756,0.27419334084407937,0.15877589280445917,1.0,0.1159880425490999
86853.65714650085,86853.65714650085,86853.65714650085,86853.65714650085,0.15646748849716396,0.08980437043196147,0.2745443640579442,0.15809436739208257,1.0,0.1095996283152611
86853.66214650085,86853.66214650085,86853.66214650085,86853.66214650085,0.1570156204791015,0.08867029354780452,0.2748907641223804,0.1574145392254876,1.0,0.10322712355290006
86853.66714650085,86853.66714650085,86853.66714650085,86853.66714650085,0.15755338060397825,0.13405618670837904,0.2752324520986201,0.15877871389571982,1.0,0.1160144866100802
86853.67214650086,86853.67214650086,86853.67214650086,86853.67214650086,0.15808013440913246,0.08639079980955368,0.2754267559390834,0.15811157005574364,1.0,0.1097608809103904
86853.67714650086,86853.67714650086,86853.67714650086,86853.67714650086,0.15859615277258693,0.0852455170837364,0.2391345697258234,0.0972088628372285,1.0,0.0
86853.68214650087,86853.68214650087,86853.68214650087,86853.68214650087,0.15910130973793787,0.08409670875123593,0.23951182321045053,0.09613240552012031,1.0,0.0
86853.68714650087,86853.68714650087,86853.68714650087,86853.68714650087,0.15959555232888423,0.08294448905659298,0.23988311249067945,0.09505279661748023,1.0,0.0
86853.69214650088,86853.69214650088,86853.69214650088,86853.69214650088,0.16007872867694417,0.0817889436555595,0.23420446383266122,0.09397018341056175,1.0,0.0
86853.69714650088,86853.69714650088,86853.69714650088,86853.69714650088,0.1605510077818049,0.08063025190559568,0.23457282195835227,0.09288472734682192,1.0,0.0
86853.70214650089,86853.70214650089,86853.70214650089,86853.70214650089,0.16101225821221696,0.07946850406155329,0.23493477962540474,0.091796581230854,1.0,0.0
86853.70714650089,86853.70714650089,86853.70714650089,86853.70714650089,0.16146226824642015,0.07830377266674804,0.235290250409643,0.09070590163302575,1.0,0.0
86853.7121465009,86853.7121465009,86853.7121465009,86853.7121465009,0.1619013447716539,0.07713626473980893,0.23563916408705873,0.08961285220418659,1.0,0.0
86853.7171465009,86853.7171465009,86853.7171465009,86853.7171465009,0.16232899001761458,0.07596598459285586,0.2359814341311074,0.08851759441980926,1.0,0.0
86853.7221465009,86853.7221465009,86853.7221465009,86853.7221465009,0.19279596609652372,0.07479316575680832,0.23772564299156462,0.08742029846598971,1.0,0.0
86853.72714650091,86853.72714650091,86853.72714650091,86853.72714650091,0.16315086083899802,0.0736178269913399,0.16181405709802404,0.08632113540684709,0.3293483691788343,0.0
86853.73214650092,86853.73214650092,86853.73214650092,86853.73214650092,0.16354485415471265,0.3071204732218559,0.16228448669599146,0.11326830270476816,0.3340346281974801,0.0
86853.73714650092,86853.73714650092,86853.73714650092,86853.73714650092,0.2139869978133761,0.07126020468046948,0.16633708888719664,0.11244124192893074,0.37440526739530167,0.0
86853.74214650092,86853.74214650092,86853.74214650092,86853.74214650092,0.16429863215245613,0.07007815232368526,0.1667761541865708,0.11161794565043437,0.3787790859812424,0.0
86853.74714650093,86853.74714650093,86853.74714650093,86853.74714650093,0.16465828176353764,0.06889406528959248,0.16720456253078592,0.10785186127766525,0.38304674361889013,0.0
86853.75214650093,86853.75214650093,86853.75214650093,86853.75214650093,0.165006588611956,0.06770811064816355,0.16762228690726247,0.10701442708015983,0.3872079712181514,0.0
86853.75714650094,86853.75714650094,86853.75714650094,86853.75714650094,0.1653435242057735,0.06652040342873106,0.16802928286664226,0.1061813211981529,0.391262325989698,0.0
86853.76214650094,86853.76214650094,86853.76214650094,86853.76214650094,0.16566866829506885,0.06533100718564161,0.16842548784721978,0.10535281546405904,0.3952091847151823,0.0
86853.76714650095,86853.76714650095,86853.76714650095,86853.76714650095,0.1659823984637156,0.06414009920877918,0.16881086598279701,0.10452918721609471,0.39904819010778686,0.0
86853.77214650095,86853.77214650095,86853.77214650095,86853.77214650095,0.16628445230224131,0.06294776774012126,0.16918537453124075,0.1037107172138233,0.40277891638497554,0.0
86853.77714650096,86853.77714650096,86853.77714650096,86853.77714650096,0.22785338980931918,0.06175415755070369,0.1739467584550413,0.10289768713767553,0.45021019717715627,0.0
86853.78214650096,86853.78214650096,86853.78214650096,86853.78214650096,0.16685378629304806,0.06055935560274344,0.1742904965743242,0.10209038174142732,0.4536343989461389,0.0
86853.78714650097,86853.78714650097,86853.78714650097,86853.78714650097,0.1671210120328533,0.05936351112228626,0.17462356007523697,0.10128909194253279,0.45695226381195103,0.0
86853.79214650097,86853.79214650097,86853.79214650097,86853.79214650097,0.1673762818393581,0.2718523165054828,0.17494588056330032,0.12044328566696678,0.4601631104521444,0.0
86853.79714650098,86853.79714650098,86853.79714650098,86853.79714650098,0.16762010932044163,0.05696911533764744,0.1752574495680488,0.11978627067700237,0.46326685448683463,0.0
86853.80214650098,86853.80214650098,86853.80214650098,86853.80214650098,0.167851981347554,0.0557708100370587,0.1736459726650683,0.1191365749600877,0.44721387184594463,0.0
86853.80714650099,86853.80714650099,86853.80714650099,86853.80714650099,0.16807202062815205,0.05457192676451337,0.17393906653809227,0.11849443199771932,0.4501335729270479,0.0
86853.81214650099,86853.81214650099,86853.81214650099,86853.81214650099,0.16828030247777082,0.05337258962013713,0.1742211458842988,0.0912347709490935,0.45294355105309597,0.0
86853.817146501,86853.817146501,86853.817146501,86853.817146501,0.16847680343925533,0.052172916872981125,0.17107054846534397,0.09042418487539351,0.4215583753913348,0.0
86853.822146501,86853.822146501,86853.822146501,86853.822146501,0.16866162348404287,0.05097302836101573,0.17133571277335224,0.08962136797147653,0.42419985168278357,0.0
86853.827146501,86853.827146501,86853.827146501,86853.827146501,0.16883425822808262,0.050226960207793096,0.17158953212225478,0.08884262379794446,0.4267283133655531,0.0
86853.83214650101,86853.83214650101,86853.83214650101,86853.83214650101,0.16899518948277473,0.051426925427953164,0.17183198194855792,0.08815771707013151,0.4291435157465073,0.0
86853.83714650101,86853.83714650101,86853.83714650101,86853.83714650101,0.1691442878779047,0.05262674985414012,0.1720630315921412,0.08756895140122682,0.4314451533999953,0.0
86853.84214650102,86853.84214650102,86853.84214650102,86853.84214650102,0.1692811997123243,0.053826304925030814,0.17228265408410848,0.08707836649900437,0.4336329576710828,0.0
86853.84714650102,86853.84714650102,86853.84714650102,86853.84714650102,0.16940653694546526,0.05502548860947892,0.17249083753425876,0.0866877019335639,0.43570681011364765,0.0
86853.85214650103,86853.85214650103,86853.85214650103,86853.85214650103,0.16951980223258428,0.05622416641859817,0.17268755542956746,0.08639837168979252,0.4376664466139923,0.0
86853.85714650103,86853.85714650103,86853.85714650103,86853.85714650103,0.16962091788948502,0.05742221040209876,0.16844694219210257,0.0862114378878415,0.39542290557294835,0.0
86853.86214650104,86853.86214650104,86853.86214650104,86853.86214650104,0.16971034555650674,0.058619529090078205,0.1686252080670502,0.08612759647854942,0.3971987293472168,0.0
86853.86714650104,86853.86714650104,86853.86714650104,86853.86714650104,0.16978764131297347,0.05981597489730066,0.16879162138755463,0.08614715984976598,0.3988564820213814,0.0
86853.87214650105,86853.87214650105,86853.87214650105,86853.87214650105,0.1698529974530477,0.0610114420373088,0.1689461830420508,0.05509085931042282,0.4003961724457277,0.0
86853.87714650105,86853.87714650105,86853.87714650105,86853.87714650105,0.16990638795404875,0.062205809981100875,0.16908886048662494,0.055443736777714275,0.40181747642889926,0.0
86853.88214650106,86853.88214650106,86853.88214650106,86853.88214650106,0.16994777526977806,0.06339895625686602,0.1692196506259491,0.055953759686176247,0.403120363136296,0.0
86853.88714650106,86853.88714650106,86853.88714650106,86853.88714650106,0.16997717251633362,0.06459076338993655,0.16933854360166167,0.0566166070451049,0.4043047343622861,0.0
86853.89214650106,86853.89214650106,86853.89214650106,86853.89214650106,0.16999443905002917,0.0657810941542571,0.16944551607597094,0.057426889454205605,0.4053703576237574,0.0
86853.89714650107,86853.89714650107,86853.89714650107,86853.89714650107,0.16999986247796273,0.06696986664111239,0.16954056421647495,0.05837835209918474,0.4063171947436303,0.0
86853.90214650107,86853.90214650107,86853.90214650107,86853.90214650107,0.16999330046543373,0.06815694487656773,0.1696236690449458,0.05946408128845344,0.40714505666727885,0.0
86853.90714650108,86853.90714650108,86853.90714650108,86853.90714650108,0.1699746753708156,0.06934219822643403,0.1696948380771157,0.060653330668457316,0.40785401826386086,0.0
86853.91214650108,86853.91214650108,86853.91214650108,86853.91214650108,0.16994403002623015,0.07052551304881075,0.1697540515704878,0.06184170501705409,0.40844388286536465,0.0
86853.91714650109,86853.91714650109,86853.91714650109,86853.91714650109,0.3237317730850941,0.07170678388081364,0.18324428353577446,0.06302907648705715,0.5428289672310097,0.0
86853.92214650109,86853.92214650109,86853.92214650109,86853.92214650109,0.16984684363506924,0.14952938994164713,0.18327699407136808,0.07203488698168217,0.5431548184170164,0.0
86853.9271465011,86853.9271465011,86853.9271465011,86853.9271465011,0.1697802541032197,0.0740626875477841,0.1832986062441691,0.07309320948688923,0.5433701115026108,0.0
86853.9321465011,86853.9321465011,86853.9321465011,86853.9321465011,0.1697017427867506,0.07523709931838932,0.18330912807549388,0.0741541218484715,0.5434749263934073,0.0
86853.9371465011,86853.9371465011,86853.9371465011,86853.9371465011,0.16961118160486705,0.14760848203960253,0.18330856501274242,0.08157523150306566,0.5434693173545448,0.0
86853.94214650111,86853.94214650111,86853.94214650111,86853.94214650111,0.16950864546801808,0.07757819767601566,0.18329690048047495,0.08255847241515273,0.5433531192671521,0.0
86853.94714650112,86853.94714650112,86853.94714650112,86853.94714650112,0.1693942634405729,0.07874469087104595,0.1832741513682333,0.08354534598342336,0.5431265003790778,0.0
86853.95214650112,86853.95214650112,86853.95214650112,86853.95214650112,0.8173626815657569,0.07990830785072199,0.2711851702974968,0.08453554687671797,1.0,0.0
86853.95714650112,86853.95714650112,86853.95714650112,86853.95714650112,0.1691296910915293,0.08106893997987287,0.27115482399010093,0.0855287777614894,1.0,0.0
86853.96214650113,86853.96214650113,86853.96214650113,86853.96214650113,0.16897940530792085,0.08222643045318373,0.27111699622449825,0.0865247462494835,1.0,0.0
86853.96714650113,86853.96714650113,86853.96714650113,86853.96714650113,0.16881734876800128,0.08338073255689914,0.27107170042457435,0.08752317095455012,1.0,0.0
86853.97214650114,86853.97214650114,86853.97214650114,86853.97214650114,0.1686432501455634,0.08453165115144143,0.2710189459300825,0.08852377327633812,1.0,0.0
86853.97714650114,86853.97714650114,86853.97714650114,86853.97714650114,0.16845746851945775,0.08567916896628054,0.27095874574212236,0.08952628521770588,1.0,0.0
86853.98214650115,86853.98214650115,86853.98214650115,86853.98214650115,0.34941780547048373,0.08682307429241327,0.28150192615715164,0.09053043998180624,1.0,0.0
86853.98714650115,86853.98714650115,86853.98714650115,86853.98714650115,0.16805023133719924,0.1605175491093041,0.2814297026865741,0.09749670255000119,1.0,0.0
86853.99214650116,86853.99214650116,86853.99214650116,86853.99214650116,0.16782885446885373,0.08909977612524207,0.2813503589742275,0.09844244328691029,1.0,0.0
86853.99714650116,86853.99714650116,86853.99714650116,86853.99714650116,0.16759568671595243,0.09023229781243669,0.2726965398134664,0.09939021548885213,1.0,0.0
86854.00214650117,86854.00214650117,86854.00214650117,86854.00214650117,0.167350920741869,0.09136085189350768,0.27260007630228156,0.09488229740088297,1.0,0.0
86854.00714650117,86854.00714650117,86854.00714650117,86854.00714650117,0.16709427670014732,0.28089456128607737,0.27249632889989855,0.1165812159597363,1.0,0.0
86854.01214650118,86854.01214650118,86854.01214650118,86854.01214650118,0.1668258915839939,0.5068262279534453,0.27238531816397993,0.17114889038167969,1.0,0.23196880042271964
86854.01714650118,86854.01714650118,86854.01714650118,86854.01714650118,0.16654595348251758,0.09472112348054049,0.27226707780650355,0.16879257057951771,1.0,0.20988136730542045
86854.02214650119,86854.02214650119,86854.02214650119,86854.02214650119,0.16625428888518082,0.09583241974351454,0.27214163295527266,0.16937760810624838,1.0,0.21536533311978812
86854.02714650119,86854.02714650119,86854.02714650119,86854.02714650119,0.1659509571485311,0.09693911587723902,0.2720090069617338,0.16996632973389647,1.0,0.22088383258809194
86854.0321465012,86854.0321465012,86854.0321465012,86854.0321465012,0.793563509438233,0.09804118413516962,0.2675681791838877,0.17055856545744894,1.0,0.22643527213447198
86854.0371465012,86854.0371465012,86854.0371465012,86854.0371465012,0.23421960000799524,0.0991383521672179,0.27061707919213146,0.17115413883679118,1.0,0.23201799786236169
86854.0421465012,86854.0421465012,86854.0421465012,86854.0421465012,0.1649715474159569,0.10023060699331673,0.2704624776247024,0.1717528778086036,1.0,0.2376303969019545
86854.04714650121,86854.04714650121,86854.04714650121,86854.04714650121,0.16462219503971234,0.10131793890419503,0.2703008045101002,0.17235461169320776,1.0,0.24327086935327985
86854.05214650121,86854.05214650121,86854.05214650121,86854.05214650121,0.1642612992284245,0.10240010411013882,0.27013210047417885,0.17295916715117352,1.0,0.24893779038465474
86854.05714650122,86854.05714650122,86854.05714650122,86854.05714650122,0.4179525500963624,0.10347698406557838,0.2865580267085466,0.1735663673970631,1.0,0.2546295028625572
86854.06214650122,86854.06214650122,86854.06214650122,86854.06214650122,0.1635051330976704,0.10454854552019481,0.275962992141498,0.17417604140699847,1.0,0.26034440366059297
86854.06714650123,86854.06714650123,86854.06714650123,86854.06714650123,0.1631100676253492,0.10561466727444255,0.2757776711428152,0.17153448428356038,1.0,0.2355832416842216
86854.07214650123,86854.07214650123,86854.07214650123,86854.07214650123,0.16270367745147826,0.10667522123083568,0.27558564284528486,0.17216019093672466,1.0,0.24144842765776167
86854.07714650124,86854.07714650124,86854.07714650124,86854.07714650124,0.16228596981344973,0.10773008413177834,0.2753869512240552,0.1727878042846991,1.0,0.2473314864149772
86854.08214650124,86854.08214650124,86854.08214650124,86854.08214650124,0.16185712161220056,0.10877921950308787,0.2751816404230938,0.17341714849774684,1.0,0.25323076978079934
86854.08714650125,86854.08714650125,86854.08714650125,86854.08714650125,0.16141700549320967,0.1373441287012386,0.27496976151610375,0.16223782184998464,1.0,0.14843912418060046
86854.09214650125,86854.09214650125,86854.09214650125,86854.09214650125,0.16096558006918266,0.11085957440815347,0.2747513598505681,0.10504605933663008,1.0,0.0
86854.09714650126,86854.09714650126,86854.09714650126,86854.09714650126,0.1605034741146321,0.11189085680711362,0.2745264976301522,0.1060961432846675,1.0,0.0
86854.10214650126,86854.10214650126,86854.10214650126,86854.10214650126,0.16002995712253992,0.1129157493468103,0.27429521790184974,0.10714137263877854,1.0,0.0
86854.10714650126,86854.10714650126,86854.10714650126,86854.10714650126,0.15954568989318932,0.11393449469438885,0.2740575865587094,0.10818163447096468,1.0,0.0
86854.11214650127,86854.11214650127,86854.11214650127,86854.11214650127,0.15905038075675662,0.7657017058889749,0.1932089141501203,0.21850905090001574,0.6420932148160141,0.6759087006491304
86854.11714650127,86854.11714650127,86854.11714650127,86854.11714650127,0.1585440927878137,0.11595256111428788,0.1883401776777698,0.21902566470081508,0.5935925245925596,0.6807512830363598
86854.12214650128,86854.12214650128,86854.12214650128,86854.12214650128,0.15802699643260043,0.11695175724413388,0.1879676302897317,0.2195431916085056,0.5898813347256596,0.6856024246129526
86854.12714650128,86854.12714650128,86854.12714650128,86854.12714650128,0.15749903306634191,0.11794421747760224,0.18758577353189257,0.220061485924814,0.5860774080956468,0.6904607596471167
86854.13214650129,86854.13214650129,86854.13214650129,86854.13214650129,0.15696041669393093,0.11892994433927212,0.1871946775567915,0.22058040933775275,0.5821814435381609,0.6953249916438808
86854.13714650129,86854.13714650129,86854.13714650129,86854.13714650129,0.15641110032042538,0.11990877634196129,0.16016586228439333,0.2210998219343312,0.31292961525001145,0.7001938091009523
86854.1421465013,86854.1421465013,86854.1421465013,86854.1421465013,0.15585095244515645,0.12088049090149271,0.15968822081826112,0.22161957760716972,0.3081715140633248,0.7050658424516988
86854.1471465013,86854.1471465013,86854.1471465013,86854.1471465013,0.15528049174701436,0.12184529896908383,0.1591996354514663,0.22213954142017628,0.30330439347522103,0.7099398268457785
86854.1521465013,86854.1521465013,86854.1521465013,86854.1521465013,0.15469944360854648,0.12280288399624116,0.1587001524185302,0.2226595718932556,0.29832871405821415,0.714814436091331
86854.15714650131,86854.15714650131,86854.15714650131,86854.15714650131,0.1541077308513246,0.12375305220333341,0.15818981295276408,0.22317952501764227,0.2932448865644709,0.7196883202935024
86854.16214650132,86854.16214650132,86854.16214650132,86854.16214650132,0.15350589679982474,0.12469605056648561,0.15766868016671454,0.22369926696135836,0.2880535396996297,0.7245602249515847
86854.16714650132,86854.16714650132,86854.16714650132,86854.16714650132,0.15289347099083084,0.47716397623937157,0.15713679691145083,0.25118268291681783,0.28275510033141027,0.9821814999560025
86854.17214650133,86854.17214650133,86854.17214650133,86854.17214650133,0.15227090655589573,0.126559308154751,0.15659423642686265,0.25164598849367026,0.2773502980505847,0.9865243870854196
86854.17714650133,86854.17714650133,86854.17714650133,86854.17714650133,0.15163805271039468,0.12747950856115586,0.1560410226392263,0.25210894441506665,0.27183937120254753,0.9908639966497572
86854.18214650133,86854.18214650133,86854.18214650133,86854.18214650133,0.15099500934210205,0.12839194104295398,0.15547723257970686,0.2525714307056882,0.26622308714546133,0.9951992040364621
86854.18714650134,86854.18714650134,86854.18714650134,86854.18714650134,0.15034198059054021,0.12929662351905355,0.1549029134600728,0.25303332160898967,0.26050191618684265,0.9995288304415024
86854.19214650134,86854.19214650134,86854.19214650134,86854.19214650134,0.1496787301113707,0.13019322780242984,0.15431811709168824,0.16864625768083016,0.25467637445380914,0.20850987419952102
86854.19714650135,86854.19714650135,86854.19714650135,86854.19714650135,0.5270295357802268,0.13108191362905494,0.19900521388119372,0.16933739164159742,0.6998339734903827,0.21498835607601952
86854.20214650135,86854.20214650135,86854.20214650135,86854.20214650135,0.5117985252506336,0.1319624177210409,0.23326680020922516,0.17002551306641595,1.0,0.2214385993466123
86854.20714650136,86854.20714650136,86854.20714650136,86854.20714650136,0.1476298036608597,0.13283485889598154,0.23286302502621045,0.17071047543968249,1.0,0.22785923061810187
86854.21214650136,86854.21214650136,86854.21214650136,86854.21214650136,0.26521548937225503,0.13369896130907138,0.2389175718453899,0.17139212047817082,1.0,0.23424876619113227
86854.21714650137,86854.21714650137,86854.21714650137,86854.21714650137,0.1462148944575017,0.13455465193040606,0.23851363446899174,0.17207029506577162,1.0,0.24060577080134735
86854.22214650137,86854.22214650137,86854.22214650137,86854.22214650137,0.14549293122150048,0.1354018717538004,0.2381043278296153,0.1727448546444644,1.0,0.24692888940534155
86854.22714650138,86854.22714650138,86854.22714650138,86854.22714650138,0.14476152116972005,0.13624064308416245,0.23768974023310085,0.17341564823519295,1.0,0.25321670677085184
86854.23214650138,86854.23214650138,86854.23214650138,86854.23214650138,0.1440205566364342,0.13707072000179657,0.23726996816315823,0.17408252834671037,1.0,0.25946784035929055
86854.23714650139,86854.23714650139,86854.23714650139,86854.23714650139,0.14327027872265244,0.13789217270640497,0.23684512143110792,0.1747453611997654,1.0,0.26568103616419303
86854.24214650139,86854.24214650139,86854.24214650139,86854.24214650139,0.14251051718372043,0.13870468845014355,0.23641528238027373,0.1754039882928399,1.0,0.2718548084400008
86854.2471465014,86854.2471465014,86854.2471465014,86854.2471465014,0.3747085879557952,0.13950839271262244,0.2514091640512676,0.1332389951274699,1.0,0.0
86854.2521465014,86854.2521465014,86854.2521465014,86854.2521465014,0.14096354558110452,0.2822838241822242,0.25099668529967145,0.14741713267026896,1.0,0.009514441415171545
86854.2571465014,86854.2571465014,86854.2571465014,86854.2571465014,0.5039318413916505,0.141088956047611,0.2782694937288015,0.14818992131956665,1.0,0.016758329782747862
86854.26214650141,86854.26214650141,86854.26214650141,86854.26214650141,0.13938012786898676,0.14186562361358218,0.27789048038749564,0.1489558259035382,1.0,0.023937688992470965
86854.26714650141,86854.26714650141,86854.26714650141,86854.26714650141,0.5233398644433176,0.14263305211962285,0.3048413325022085,0.14971472452493068,1.0,0.031051376416154807
86854.27214650142,86854.27214650142,86854.27214650142,86854.27214650142,0.13776088916588966,0.14339118139782364,0.3044899575892833,0.1504665108442453,1.0,0.03809839525932163
86854.27714650142,86854.27714650142,86854.27714650142,86854.27714650142,0.13693819138910407,0.14414012438401833,0.27663356686234936,0.15121107795624786,1.0,0.045077743424459374
86854.28214650143,86854.28214650143,86854.28214650143,86854.28214650143,0.13610663100692544,0.1448794707804959,0.24761428795546947,0.1519483100658538,1.0,0.05198833548327333
86854.28714650143,86854.28714650143,86854.28714650143,86854.28714650143,0.13526640636220588,0.14560926630243345,0.24717248675726278,0.1526780889660332,1.0,0.05882906339861783
86854.29214650144,86854.29214650144,86854.29214650144,86854.29214650144,0.134417947971373,0.14632982944345316,0.24047306765651766,0.1534003317171578,1.0,0.06559914971936362
86854.29714650144,86854.29714650144,86854.29714650144,86854.29714650144,0.1615478791461123,0.14704064406039583,0.24108552193484764,0.15411492971653656,1.0,0.07229757643654874
86854.30214650145,86854.30214650145,86854.30214650145,86854.30214650145,0.1326954868451547,0.14774164516673252,0.24062361186342648,0.1548217749193141,1.0,0.07892333077019555
86854.30714650145,86854.30714650145,86854.30714650145,86854.30714650145,0.13182169616719847,0.14843279209990914,0.24015836219933098,0.1555207568078247,1.0,0.08547537676094617
86854.31214650146,86854.31214650146,86854.31214650146,86854.31214650146,0.1309399489441277,0.14911436740947237,0.23968990024141912,0.1562117963406119,1.0,0.09195297349796072
86854.31714650146,86854.31714650146,86854.31714650146,86854.31714650146,0.13005000626120797,0.16049645703393634,0.23921833696007933,0.15755532093564117,1.0,0.1045467689610926
86854.32214650146,86854.32214650146,86854.32214650146,86854.32214650146,0.17489542174190909,0.15044736193095506,0.2405573950283806,0.15822734525755547,1.0,0.11084612283057217
86854.32714650147,86854.32714650147,86854.32714650147,86854.32714650147,0.4040562958850634,0.15109889250318725,0.24350830699408102,0.15889119081042713,1.0,0.11706881137896702
86854.33214650147,86854.33214650147,86854.33214650147,86854.33214650147,0.12733237157941904,0.15174022822502525,0.24303851814980132,0.1473269127954332,1.0,0.00866874744381094
86854.33714650148,86854.33714650148,86854.33714650148,86854.33714650148,0.1264110146490891,0.15237154945197492,0.21022547192351798,0.14802755303175863,0.8116063527572513,0.015236338288197928
86854.34214650148,86854.34214650148,86854.34214650148,86854.34214650148,0.12548190483401345,0.15299248503902424,0.20967756096019352,0.14871855731134132,0.8061482508342682,0.021713604572276352
86854.34714650149,86854.34714650149,86854.34714650149,86854.34714650149,0.12454531407604989,0.15360321331851404,0.16678237966475254,0.14939986366398592,0.37884110206909194,0.028099965406073846
86854.3521465015,86854.3521465015,86854.3521465015,86854.3521465015,0.12360114422960576,0.15420340686533757,0.16608750986627763,0.15007139300831424,0.3719190464119707,0.03439467950453644
86854.3571465015,86854.3571465015,86854.3571465015,86854.3571465015,0.122649714786346,0.1547933205061838,0.16538815314540123,0.15073307629033855,0.364952293566023,0.040597099576352526
86854.3621465015,86854.3621465015,86854.3621465015,86854.3621465015,0.12169102214785785,0.1553727581634386,0.16468446137251422,0.1513848567255123,0.3579423564122239,0.04670669334026164
86854.3671465015,86854.3671465015,86854.3671465015,86854.3671465015,0.12072509625545862,0.1559415633919716,0.163976579359795,0.15202666507328194,0.35089067752004616,0.05272281175614031
86854.37214650151,86854.37214650151,86854.37214650151,86854.37214650151,0.11975215459741397,0.1564998582556057,0.1632646415812596,0.15265842118557038,0.34379859647371874,0.05864470354001995
86854.37714650152,86854.37714650152,86854.37714650152,86854.37714650152,0.11877232301333152,0.15704763603977492,0.16095314506633032,0.15328007574411,0.32077225749237365,0.0644719063972934
86854.38214650152,86854.38214650152,86854.38214650152,86854.38214650152,0.11778548762901739,0.15758451401879753,0.160226395955618,0.1538915590732419,0.31353263101248474,0.07020376720929007
86854.38714650153,86854.38714650153,86854.38714650153,86854.38714650153,0.11679189300477003,0.1581106627221001,0.1594959548989535,0.1544928151969648,0.30625622662769886,0.07583976127381034
86854.39214650153,86854.39214650153,86854.39214650153,86854.39214650153,0.1157916758336655,0.158626092843217,0.15876196727116,0.15508377210448918,0.2989444925123638,0.08137921358337132
86854.39714650153,86854.39714650153,86854.39714650153,86854.39714650153,0.11478476624414394,0.15913047253122903,0.15802458955454618,0.1549957693959097,0.29159898748980523,0.08055430266164204
86854.40214650154,86854.40214650154,86854.40214650154,86854.40214650154,0.11377142980000234,0.15962402311732377,0.15449592716204955,0.15556840065833108,0.25644765765843097,0.08592197588579527
86854.40714650154,86854.40714650154,86854.40714650154,86854.40714650154,0.11275180313463909,0.1601067620565835,0.12024852988195314,0.1561305015993852,0.0,0.09119094104464712
86854.41214650155,86854.41214650155,86854.41214650155,86854.41214650155,0.1117257892144186,0.16057829471105867,0.1192750136616742,0.156682008448908,0.0,0.09636060037585947
86854.41714650155,86854.41714650155,86854.41714650155,86854.41714650155,0.11069364050718249,0.16103883534137864,0.1182946003543701,0.15722286048612868,0.0,0.10143038470119004
86854.42214650156,86854.42214650156,86854.42214650156,86854.42214650156,0.10965544568447953,0.16148831481294032,0.11730739743711063,0.15775301524332233,0.0,0.10639989594095837
86854.42714650156,86854.42714650156,86854.42714650156,86854.42714650156,0.18155270753681785,0.16192666229382455,0.1218673095653473,0.15827241506213338,0.0,0.11126859362308134
86854.43214650157,86854.43214650157,86854.43214650157,86854.43214650157,0.10756124574251616,0.16235375184525688,0.12091278803903281,0.1587810142859809,0.0,0.11603604977650131
86854.43714650157,86854.43714650157,86854.43714650157,86854.43714650157,0.1065054787386982,0.18563302056183595,0.11995282964725668,0.16083400103300197,0.0,0.13528013006811715
86854.44214650158,86854.44214650158,86854.44214650158,86854.44214650158,0.10544397439947148,0.16317415413284428,0.11898755930555999,0.16131613465688147,0.0,0.13979950564747137
86854.44714650158,86854.44714650158,86854.44714650158,86854.44714650158,0.1043769537800522,0.1635673652290864,0.11801711420553054,0.16178744477420187,0.0,0.14421742493171685
86854.45214650159,86854.45214650159,86854.45214650159,86854.45214650159,0.1033045725766249,0.1639493811964385,0.11704162830776708,0.16224788722540373,0.0,0.14853347398242517
86854.45714650159,86854.45714650159,86854.45714650159,86854.45714650159,0.10222686913876196,0.16432002434727905,0.11606123172997586,0.16269740720151435,0.0,0.1527471390367711
86854.4621465016,86854.4621465016,86854.4621465016,86854.4621465016,0.10114383243860782,0.16467899319229196,0.11507606340895526,0.16313595417277968,0.0,0.156857946444038
86854.4671465016,86854.4671465016,86854.4671465016,86854.4671465016,0.10005574724318823,0.16502663966259454,0.11408626456545541,0.16356348974360813,0.0,0.16086553629549846
86854.4721465016,86854.4721465016,86854.4721465016,86854.4721465016,0.09896269036258688,0.1653628637764323,0.11309197420999256,0.16397996871175996,0.0,0.1647694848789527
86854.47714650161,86854.47714650161,86854.47714650161,86854.47714650161,0.09786465591294838,0.16568736057667408,0.11209333789488087,0.16438534689606024,0.0,0.16856937805335517
86854.48214650161,86854.48214650161,86854.48214650161,86854.48214650161,0.09676190540618686,0.1660004578278811,0.11109050097379894,0.16477958756114092,0.0,0.1722648714724146
86854.48714650162,86854.48714650162,86854.48714650162,86854.48714650162,0.09565441945440174,0.3017637897457052,0.11008360157080622,0.17675268901323715,0.0,0.28449712334551375
86854.49214650162,86854.49214650162,86854.49214650162,86854.49214650162,0.09454239281226032,0.166591590023064,0.10907279719867233,0.17710017968452613,0.0,0.2877543963837229
86854.49714650163,86854.49714650163,86854.49714650163,86854.49714650163,0.10017503451868603,0.16686984298072066,0.10843545226077177,0.1774372453004452,0.0,0.290913948088429
86854.50214650163,86854.50214650163,86854.50214650163,86854.50214650163,0.09230505705029195,0.16713605940717932,0.10742086148089602,0.1777638185293204,0.0,0.29397514731277186
86854.50714650164,86854.50714650164,86854.50714650164,86854.50714650164,0.09118007981064392,0.16739099466385995,0.0999938388855445,0.17807988094934754,0.0,0.2969378213762991
86854.51214650164,86854.51214650164,86854.51214650164,86854.51214650164,0.09005087883290724,0.16763389341380444,0.09890652918096102,0.178385377320035,0.0,0.29980145247125745
86854.51714650165,86854.51714650165,86854.51714650165,86854.51714650165,0.08891772147286506,0.16786517076936378,0.09781454659985248,0.1772816584386793,0.0,0.28945552364195465
86854.52214650165,86854.52214650165,86854.52214650165,86854.52214650165,0.08778066996311182,0.1680846567993533,0.09671801238218626,0.1775681612041352,0.0,0.2921411143941618
86854.52714650166,86854.52714650166,86854.52714650166,86854.52714650166,0.0866398114674978,0.1682922436428184,0.09561703926252246,0.17784389683740773,0.0,0.2947257772877024
86854.53214650166,86854.53214650166,86854.53214650166,86854.53214650166,0.08549528844221571,0.16848799659886285,0.09451173894941262,0.17810882061260955,0.0,0.2972090930755609
86854.53714650167,86854.53714650167,86854.53714650167,86854.53714650167,0.08434723843325556,0.16867197507157525,0.09340222984666693,0.1783629019116103,0.0,0.29959077475259244
86854.54214650167,86854.54214650167,86854.54214650167,86854.54214650167,0.08319576169138954,0.16884411633379443,0.09228863844222474,0.17860612413824944,0.0,0.3018706667513795
86854.54714650167,86854.54714650167,86854.54714650167,86854.54714650167,0.08204095690207394,0.21902372877497198,0.0911710790976674,0.18219837458851842,0.0,0.33554334203429514
86854.55214650168,86854.55214650168,86854.55214650168,86854.55214650168,0.08088293810994344,0.16915263749824744,0.09004966900786816,0.1824156827995197,0.0,0.33758032384462777
86854.55714650168,86854.55714650168,86854.55714650168,86854.55714650168,0.07972183270634377,0.16928902045416203,0.0889245347007521,0.182622248831246,0.0,0.33951661169735237
86854.56214650169,86854.56214650169,86854.56214650169,86854.56214650169,0.07855773659082689,0.1694133962842722,0.087795792036251,0.182818030964606,0.0,0.34135181453025454
86854.5671465017,86854.5671465017,86854.5671465017,86854.5671465017,0.07739081486511332,0.169525955190701,0.08666356928256018,0.17183505605195198,0.0,0.23840071103842664
86854.5721465017,86854.5721465017,86854.5721465017,86854.5721465017,0.07622116685187948,0.16962662302821935,0.08552798887289911,0.17202053242047602,0.0,0.240139310731412
86854.5771465017,86854.5771465017,86854.5771465017,86854.5771465017,0.07504884750478549,0.16971510272880352,0.08390391903140634,0.17219441933201235,0.0,0.2417692743403451
86854.5821465017,86854.5821465017,86854.5821465017,86854.5821465017,0.07387400095810977,0.16979148600139038,0.08275529685530778,0.17235671134848193,0.0,0.24329055089030854
86854.58714650171,86854.58714650171,86854.58714650171,86854.58714650171,0.07269687007193427,0.16985640869856133,0.08160348280164814,0.1725073965137508,0.0,0.2447030283080986
86854.59214650172,86854.59214650172,86854.59214650172,86854.59214650172,0.40206629616563916,0.16990906950922452,0.1274985784772517,0.17264645943945298,0.0,0.2460065623478009
86854.59714650172,86854.59714650172,86854.59714650172,86854.59714650172,0.4460948528080546,0.16994987226091895,0.16792640812448034,0.17277388453476805,0.39023752293663727,0.24720100686575422
86854.60214650173,86854.60214650173,86854.60214650173,86854.60214650173,0.06915217395678888,0.16997845766020764,0.16738149424914217,0.17288964454474284,0.3848092769807661,0.24828610638222484
86854.60714650173,86854.60714650173,86854.60714650173,86854.60714650173,0.06796663301263565,0.16999523448303597,0.16684162403031366,0.1729937440215558,0.3794312742088007,0.2492619035679643
86854.61214650173,86854.61214650173,86854.61214650173,86854.61214650173,0.06677926150999823,0.5086105355548646,0.1663069574550257,0.2105240246695488,0.3741051083569122,0.6010594664138216
86854.61714650174,86854.61714650174,86854.61714650174,86854.61714650174,0.06559024446161879,0.16999255890976323,0.16577765400989325,0.21059040135995932,0.3688323681762997,0.6016816615456728
86854.62214650174,86854.62214650174,86854.62214650174,86854.62214650174,0.06439963683404053,0.1699730883924661,0.16525387052300164,0.21064715602701495,0.3636146159347974,0.6022136627246026
86854.62714650175,86854.62714650175,86854.62714650175,86854.62714650175,0.0632076299778459,0.19909640383704405,0.16473576445389299,0.20940743386557817,0.35845342019059656,0.5905928800534029
86854.63214650175,86854.63214650175,86854.63214650175,86854.63214650175,0.06201427176177118,0.16989857158969732,0.1642234898066089,0.20944517235816604,0.35335031507937237,0.5909466293323494
86854.63714650176,86854.63714650176,86854.63714650176,86854.63714650176,0.06081971418131775,0.16984319588836655,0.1637171991368082,0.20947321164195354,0.34830682030850557,0.5912094611452235
86854.64214650176,86854.64214650176,86854.64214650176,86854.64214650176,0.05962408736648876,0.1697759752124592,0.1632170438609342,0.20949155789200136,0.3433244442369,0.5913814333751869
86854.64714650177,86854.64714650177,86854.64714650177,86854.64714650177,0.05842748899720244,0.16969666327925362,0.16272317132024136,0.2095001958968471,0.3384046546278211,0.591462403434566
86854.65214650177,86854.65214650177,86854.65214650177,86854.65214650177,0.171460633414917,0.16960557147530736,0.16719194999443163,0.20949913065580142,0.3829211018384969,0.5914524181853954
86854.65714650178,86854.65714650178,86854.65714650178,86854.65714650178,0.05603189907825513,0.16950237297049528,0.166725375709872,0.20948836636508086,0.3782732481355563,0.5913515169617468
86854.66214650178,86854.66214650178,86854.66214650178,86854.66214650178,0.05483313361437567,0.16938720005748548,0.166265397597858,0.20946790999782636,0.37369110325113813,0.591159765127746
86854.66714650179,86854.66714650179,86854.66714650179,86854.66714650179,0.05363388973357075,0.1692602209341753,0.16581214487781004,0.20943774551111138,0.36917595442498463,0.5908770123018252
86854.67214650179,86854.67214650179,86854.67214650179,86854.67214650179,0.052434276420835764,0.1691211166459039,0.13252139569120033,0.2093978820497147,0.03754487872887335,0.5905033442043899
86854.6771465018,86854.6771465018,86854.6771465018,86854.6771465018,0.05123442317034737,0.1689702473638246,0.07272167553026117,0.20934832718509916,0.0,0.5900388318080553
86854.6821465018,86854.6821465018,86854.6821465018,86854.6821465018,0.0501692597848271,0.16880738856988844,0.07174172641116223,0.20928909609234778,0.0,0.5894836173594858
86854.6871465018,86854.6871465018,86854.6871465018,86854.6871465018,0.05116553458509814,0.1686326860343027,0.07086450701054858,0.20922019126727362,0.0,0.5888377242536823
86854.69214650181,86854.69214650181,86854.69214650181,86854.69214650181,0.052365399758214554,0.16844620272027397,0.07010310218955468,0.17140209692345262,0.0,0.23434228238859753
86854.69714650181,86854.69714650181,86854.69714650181,86854.69714650181,0.05356502639989735,0.16824776822318227,0.069461433035837,0.17129446552346245,0.0,0.23333337801728807
86854.70214650182,86854.70214650182,86854.70214650182,86854.70214650182,0.054764300693453054,0.16803762334546565,0.06894294120700453,0.1711750738983005,0.0,0.23221423683233064
86854.70714650182,86854.70714650182,86854.70714650182,86854.70714650182,0.055963090295157045,0.39288986068027654,0.06855049656290214,0.1909740753659286,0.0,0.4178041216621844
86854.71214650183,86854.71214650183,86854.71214650183,86854.71214650183,0.05716129287984193,0.16758175126125183,0.06828633317046301,0.19084608951284385,0.0,0.41660442076955684
86854.71714650183,86854.71714650183,86854.71714650183,86854.71714650183,0.05835877459458433,0.751817526186217,0.06815198167742627,0.2644733634518677,0.0,1.0
86854.72214650184,86854.72214650184,86854.72214650184,86854.72214650184,0.059555416449841254,0.16707881498182703,0.06814822885592445,0.2643659878209905,0.0,1.0
86854.72714650184,86854.72714650184,86854.72714650184,86854.72714650184,0.06075110163140701,0.1668097500358583,0.06827509722535306,0.2642511285978741,0.0,1.0
86854.73214650185,86854.73214650185,86854.73214650185,86854.73214650185,0.06194569995487655,0.16652890273240667,0.055352474735754616,0.26412880013993606,0.0,1.0
86854.73714650185,86854.73714650185,86854.73714650185,86854.73714650185,0.36069627379952185,0.16623675401651095,0.10487628770618906,0.2639990498274939,0.0,1.0
86854.74214650186,86854.74214650186,86854.74214650186,86854.74214650186,0.06433124900812956,0.16593280719004103,0.1052130008083232,0.26386190113340613,0.0,1.0
86854.74714650186,86854.74714650186,86854.74714650186,86854.74714650186,0.0655219380172347,0.16561736448437936,0.10563289581702787,0.26371738364011865,0.0,1.0
86854.75214650187,86854.75214650187,86854.75214650187,86854.75214650187,0.36624659717382035,0.1652901539384299,0.13917618228720993,0.2635655300202002,0.10383759040657883,1.0
86854.75714650187,86854.75714650187,86854.75714650187,86854.75714650187,0.06789850678500858,0.16495156096170127,0.13962122791742634,0.26340637459147304,0.10827098300628299,1.0
86854.76214650187,86854.76214650187,86854.76214650187,86854.76214650187,0.06908417280417564,0.16460144575829422,0.1401251817276695,0.2632399561612833,0.11329119878019872,1.0
86854.76714650188,86854.76714650188,86854.76714650188,86854.76714650188,0.07026791088431929,0.16423975701373827,0.14064155063450892,0.26306630667256425,0.11843508950705753,1.0
86854.77214650188,86854.77214650188,86854.77214650188,86854.77214650188,0.07144962666895274,0.1638666773335217,0.14116560449906018,0.26288546365657833,0.12365553515848017,1.0
86854.77714650189,86854.77714650189,86854.77714650189,86854.77714650189,0.0726292144441086,0.16348230208321698,0.1416971764527499,0.2626974761504777,0.12895087344671885,1.0
86854.7821465019,86854.7821465019,86854.7821465019,86854.7821465019,0.07380653975396198,0.16308657671376856,0.14223609635807075,0.2625023824008456,0.1343194095200219,1.0
86854.7871465019,86854.7871465019,86854.7871465019,86854.7871465019,0.1560255988307473,0.1626795505713961,0.14682256164543214,0.2468073902113069,0.18000821058498323,0.9411688220873569
86854.7921465019,86854.7921465019,86854.7921465019,86854.7921465019,0.07615390828625428,0.16226113373279927,0.14736049294027292,0.2465850814084165,0.18536689845826199,0.9390849662326791
86854.7971465019,86854.7971465019,86854.7971465019,86854.7971465019,0.07732373229264933,0.16183157140220814,0.14790517466376207,0.16466388166369225,0.19079283179668544,0.17118027919048853
86854.80214650191,86854.80214650191,86854.80214650191,86854.80214650191,0.07849083496464473,0.16139086920267195,0.1484564360810143,0.16430892874383254,0.19628430979762668,0.16785305727859098
86854.80714650192,86854.80714650192,86854.80714650192,86854.80714650192,0.07965508859283957,0.16093902451275724,0.1490141040747746,0.16394257034538534,0.20183960792610525,0.16441892384082973
86854.81214650192,86854.81214650192,86854.81214650192,86854.81214650192,0.08081634829537213,0.1604759799203102,0.14957800302438848,0.163564843148931,0.2074569767091296,0.16087822270993254
86854.81714650193,86854.81714650193,86854.81714650193,86854.81714650193,0.08197455275581025,0.16000198417840059,0.12108759463371932,0.1631757685718895,0.0,0.15723115464635284
86854.82214650193,86854.82214650193,86854.82214650193,86854.82214650193,0.08312953245943629,0.15951689533791197,0.12180088740308334,0.1627753909879939,0.0,0.15347813559611778
86854.82714650194,86854.82714650194,86854.82714650194,86854.82714650194,0.0842812075878372,0.1590208857908554,0.12251976788099012,0.1623637461996337,0.0,0.14961950116005845
86854.83214650194,86854.83214650194,86854.83214650194,86854.83214650194,0.08542943187989462,0.1585139069938194,0.08416468760550133,0.16194088446890126,0.0,0.14565572247991126
86854.83714650194,86854.83714650194,86854.83714650194,86854.83714650194,0.08657423007767838,0.1579964294522809,0.08522910459667483,0.16150686039165027,0.0,0.14158731132078808
86854.84214650195,86854.84214650195,86854.84214650195,86854.84214650195,0.08771525430057554,0.1574678019303882,0.08629359305250899,0.16106169779702348,0.0,0.13741449104990588
86854.84714650195,86854.84714650195,86854.84714650195,86854.84714650195,0.0888525284795728,0.15692849307509793,0.08735793458086646,0.16060545252867442,0.0,0.13313778512887683
86854.85214650196,86854.85214650196,86854.85214650196,86854.85214650196,0.0899859592129422,0.15637860482977808,0.08842191592448238,0.16013817514478396,0.0,0.12875766747488204
86854.85714650196,86854.85714650196,86854.85714650196,86854.85714650196,0.09111536979112131,0.18635236780908615,0.08948532396205543,0.16169193395792214,0.0,0.14332213526661214
86854.86214650197,86854.86214650197,86854.86214650197,86854.86214650197,0.09224065521249931,0.15524681364977935,0.09054795153573401,0.16120887959357305,0.0,0.13879412894302628
86854.86714650197,86854.86714650197,86854.86714650197,86854.86714650197,0.09336172731741665,0.15466511144912976,0.08498357527865331,0.1607151024099988,0.0,0.13416561013711645
86854.87214650198,86854.87214650198,86854.87214650198,86854.87214650198,0.09447839669696931,0.15407278628992635,0.08612566355674683,0.1602106531721187,0.0,0.12943705470396738
86854.87714650198,86854.87714650198,86854.87714650198,86854.87714650198,0.095590688112725,0.15347022073476604,0.08726421762657008,0.15969559037964626,0.0,0.12460901100229917
86854.88214650199,86854.88214650199,86854.88214650199,86854.88214650199,0.09669842188768357,0.15285730997418256,0.08839912063680254,0.1591699661403278,0.0,0.1196819674744531
86854.88714650199,86854.88714650199,86854.88714650199,86854.88714650199,0.0978014900119201,0.15223412110336368,0.08953025702925035,0.15863383701838438,0.0,0.11465645433642459
86854.892146502,86854.892146502,86854.892146502,86854.892146502,0.09889979947555044,0.15160075177199467,0.09065751449965527,0.15808726936435605,0.0,0.10953309353822
86854.897146502,86854.897146502,86854.897146502,86854.897146502,0.0999931496247206,0.15095707807409692,0.09178077196383509,0.157530306655755,0.0,0.10431229262496174
86854.902146502,86854.902146502,86854.902146502,86854.902146502,0.10108153590099107,0.15030338180515337,0.09289991905594522,0.15696301851963385,0.0,0.09899470425969971
86854.90714650201,86854.90714650201,86854.90714650201,86854.90714650201,0.1021648350007492,0.14963969510144381,0.09401484288660389,0.1563854659081734,0.0,0.09358089978984395
86854.91214650201,86854.91214650201,86854.91214650201,86854.91214650201,0.10324284963285507,0.14896591572575024,0.09512542677199791,0.155797707078488,0.0,0.0880714253000625
86854.91714650202,86854.91714650202,86854.91714650202,86854.91714650202,0.10431555991897351,0.14828227992394916,0.09623155272068445,0.15519978481670094,0.0,0.08246668185460626
86854.92214650202,86854.92214650202,86854.92214650202,86854.92214650202,0.10538292959147681,0.14758897902803278,0.09733312123732903,0.1545917950200126,0.0,0.07676756836498888
86854.92714650203,86854.92714650203,86854.92714650203,86854.92714650203,0.10644465869940017,0.42589637414466497,0.0984300123772051,0.1835652368660296,0.0,0.3483558979137589
86854.93214650203,86854.93214650203,86854.93214650203,86854.93214650203,0.1621003059470867,0.14617294406440137,0.10404161238354757,0.1830388279332509,0.0,0.34342149890542817
86854.93714650204,86854.93714650204,86854.93714650204,86854.93714650204,0.10855119694922645,0.1454504629878452,0.10508207074259586,0.1807069507334626,0.0,0.3215631833912004
86854.94214650204,86854.94214650204,86854.94214650204,86854.94214650204,0.10959566143148004,0.1447183510348492,0.10611866470943129,0.18015997416740728,0.0,0.31643598957464286
86854.94714650205,86854.94714650205,86854.94714650205,86854.94714650205,0.534161444900048,0.14397684480453238,0.16896574598964922,0.1796054522787919,0.40059105184959704,0.31123806817380717
86854.95214650205,86854.95214650205,86854.95214650205,86854.95214650205,0.11166674225533871,0.2585326140877907,0.1696198077629992,0.18695430338792612,0.4071065918950282,0.38012398816355675
86854.95714650206,86854.95714650206,86854.95714650206,86854.95714650206,0.11269307151913216,0.1424657835929104,0.17027481751632068,0.18640915611340686,0.41363157539323125,0.37501394157566387
86854.96214650206,86854.96214650206,86854.96214650206,86854.96214650206,0.1137131061485629,0.1416962830768046,0.1709305965512477,0.1858572125234582,0.4201642222121043,0.36984018837105737
86854.96714650207,86854.96714650207,86854.96714650207,86854.96714650207,0.11472676953940997,0.14091761488698626,0.17158696803630002,0.18529857691526563,0.4267027708168233,0.36460370620018495
86854.97214650207,86854.97214650207,86854.97214650207,86854.97214650207,0.11573399039436408,0.14012989748515026,0.17224375674363035,0.18473335546479663,0.43324547564740795,0.35930549032463094
86854.97714650207,86854.97714650207,86854.97714650207,86854.97714650207,0.8150307625179362,0.13933321146721445,0.2656316883479406,0.18416166578878887,1.0,0.3539466432483188
86854.98214650208,86854.98214650208,86854.98214650208,86854.98214650208,0.11772860884971233,0.1385274983286383,0.2660598675715233,0.1835836096218747,1.0,0.3485281186010938
86854.98714650208,86854.98714650208,86854.98714650208,86854.98714650208,0.11871578016404641,0.13771294242128043,0.2664889107758581,0.18299929708010904,1.0,0.34305094857773505
86854.99214650209,86854.99214650209,86854.99214650209,86854.99214650209,0.11969616500339043,0.13688972275552844,0.26691870473285717,0.18240885324201958,1.0,0.3375163056267415
86854.9971465021,86854.9971465021,86854.9971465021,86854.9971465021,0.12066947204676852,0.13605767864914686,0.2673491285312961,0.181812384966799,1.0,0.3319251914140452
86855.0021465021,86855.0021465021,86855.0021465021,86855.0021465021,0.1216357398032354,0.13521706431744854,0.26778006317817216,0.1812100026538857,1.0,0.32627864079077723
86855.0071465021,86855.0071465021,86855.0071465021,86855.0071465021,0.12259489661919573,0.1343679905446968,0.2682113950649205,0.1504285703337691,1.0,0.03774275232545058
86855.01214650211,86855.01214650211,86855.01214650211,86855.01214650211,0.12354672011426644,0.13351039411516794,0.2669251910584672,0.14969105102738278,1.0,0.030829468170397212
86855.01714650211,86855.01714650211,86855.01714650211,86855.01714650211,0.12449123807192007,0.1326445030977868,0.26735973284406034,0.14894573238716857,1.0,0.0238430754058398
86855.02214650212,86855.02214650212,86855.02214650212,86855.02214650212,0.12542832891970823,0.13177037107277845,0.2677943105998221,0.14819272264268168,1.0,0.016784588543076757
86855.02714650212,86855.02714650212,86855.02714650212,86855.02714650212,0.12635785912569858,0.13088804173743313,0.23426194526363894,0.14743211919770147,1.0,0.009654920615839639
86855.03214650213,86855.03214650213,86855.03214650213,86855.03214650213,0.1272796831501127,0.12999754985977133,0.2347590786844222,0.1364367817801713,1.0,0.0
86855.03714650213,86855.03714650213,86855.03714650213,86855.03714650213,0.1281939101056574,0.1290991933841051,0.23525559911188892,0.13560282744981894,1.0,0.0
86855.04214650214,86855.04214650214,86855.04214650214,86855.04214650214,0.12910019017499397,0.1281927975112202,0.23575137051684955,0.134760339513833,1.0,0.0
86855.04714650214,86855.04714650214,86855.04714650214,86855.04714650214,0.1299985534911612,0.1272785781395244,0.23624626074686497,0.13390940220021863,1.0,0.0
86855.05214650214,86855.05214650214,86855.05214650214,86855.05214650214,0.13088906485113622,0.12635677324603772,0.23674014264523952,0.13305010661820948,1.0,0.0
86855.05714650215,86855.05714650215,86855.05714650215,86855.05714650215,0.13177137112895315,0.1254272218789798,0.12495571031210657,0.13218252960120663,0.0,0.0
86855.06214650215,86855.06214650215,86855.06214650215,86855.06214650215,0.13264556846734296,0.124490190182738,0.12588628155154197,0.1313067681440406,0.0,0.0
86855.06714650216,86855.06714650216,86855.06714650216,86855.06714650216,0.13351144905420692,0.12354566206849266,0.1268092969518061,0.13042290679567675,0.0,0.0
86855.07214650216,86855.07214650216,86855.07214650216,86855.07214650216,0.13436894269689437,0.5026215805802807,0.1277246563754293,0.1778432967076414,0.0,0.2947201518517733
86855.07714650217,86855.07714650217,86855.07714650217,86855.07714650217,0.1352180301821509,0.2643598628445034,0.12863227621349527,0.1866524604889467,0.0,0.37729460361353834
86855.08214650217,86855.08214650217,86855.08214650217,86855.08214650217,0.1360587094778676,0.1206683900657086,0.12953207106956693,0.18602813328628312,0.007766247604648014,0.37144234819409566
86855.08714650218,86855.08714650218,86855.08714650218,86855.08714650218,0.13689063602354315,0.6265872092626666,0.1304239377288062,0.240865657046649,0.016650718720725523,0.8854728024915419
86855.09214650218,86855.09214650218,86855.09214650218,86855.09214650218,0.13771389941607046,0.11871463789409215,0.13130779264870074,0.2403809965224166,0.025455379625197543,0.8809297405082931
86855.09714650219,86855.09714650219,86855.09714650219,86855.09714650219,0.597982293598774,0.1177274236447898,0.1965248930901245,0.23989497153725184,0.6751258647180945,0.8763738884786522
86855.10214650219,86855.10214650219,86855.10214650219,86855.10214650219,0.13933415862314796,0.35962910159215017,0.1971094682734996,0.25406239611573045,0.6809492030815913,1.0
86855.1071465022,86855.1071465022,86855.1071465022,86855.1071465022,0.14013087088866932,0.11573285899202373,0.19769051446360783,0.25360225170304446,0.6867373868191994,1.0
86855.1121465022,86855.1121465022,86855.1121465022,86855.1121465022,0.14091857709255157,0.11472562931786892,0.1982678995338711,0.253141294556334,0.6924890997310645,1.0
86855.1171465022,86855.1171465022,86855.1171465022,86855.1171465022,0.14169718680753063,0.11371192421084804,0.19884148427990356,0.25267964403195076,0.6982029551106284,0.9962135632096233
86855.12214650221,86855.12214650221,86855.12214650221,86855.12214650221,0.8514625486102532,0.11269187914321184,0.28949617727536686,0.2522174293170588,1.0,0.9918809014921264
86855.12714650221,86855.12714650221,86855.12714650221,86855.12714650221,0.1432268781157902,0.11166554249468787,0.28988606611238354,0.25175477445178457,1.0,0.9875441139373292
86855.13214650222,86855.13214650222,86855.13214650222,86855.13214650222,0.14397774252763937,0.11063302712647285,0.2902736364475296,0.25129179949491975,1.0,0.9832043259402358
86855.13714650222,86855.13714650222,86855.13714650222,86855.13714650222,0.1447192416679714,0.10959446969189679,0.29065878931783035,0.25082863369403824,1.0,0.9788627490287298
86855.14214650223,86855.14214650223,86855.14214650223,86855.14214650223,0.1454512846694946,0.10854996232160148,0.29104142083873685,0.250365400784705,1.0,0.9745205430627814
86855.14714650223,86855.14714650223,86855.14714650223,86855.14714650223,0.14617377282010752,0.10749959327424348,0.2914214305706173,0.2499022276935973,1.0,0.9701788978148879
86855.15214650224,86855.15214650224,86855.15214650224,86855.15214650224,0.14688654367612416,0.10644341554964944,0.29179871562911724,0.2176464624609737,1.0,0.6678230560614917
86855.15714650224,86855.15714650224,86855.15714650224,86855.15714650224,0.1475898185541862,0.10538170548914969,0.29217318130042275,0.2090363139380712,1.0,0.5871141134743563
86855.16214650225,86855.16214650225,86855.16214650225,86855.16214650225,0.148283131584488,0.10431434185059647,0.2925447188707945,0.20848553760868624,1.0,0.581951301819198
86855.16714650225,86855.16714650225,86855.16714650225,86855.16714650225,0.14896680570004384,0.10324165159366563,0.29291324052488427,0.13997919891986135,1.0,0.0
86855.17214650226,86855.17214650226,86855.17214650226,86855.17214650226,0.1496403825858148,0.10216352936717438,0.29327864199476206,0.1391606624477554,1.0,0.0
86855.17714650226,86855.17714650226,86855.17714650226,86855.17714650226,0.15030418682732374,0.10108029137788342,0.2550987939412937,0.13834027762038612,1.0,0.0
86855.18214650227,86855.18214650227,86855.18214650227,86855.18214650227,0.1509578008648986,0.09999186374268287,0.2555118104667067,0.10807225612296564,1.0,0.0
86855.18714650227,86855.18714650227,86855.18714650227,86855.18714650227,0.15160135093755028,0.09889845443536065,0.2559207486261202,0.10702237217498078,1.0,0.0
86855.19214650228,86855.19214650228,86855.19214650228,86855.19214650228,0.15223478316371142,0.09780017610519495,0.25632550803041115,0.1059668328886413,1.0,0.0
86855.19714650228,86855.19714650228,86855.19714650228,86855.19714650228,0.15285813035239787,0.09669718080404037,0.25672599356347275,0.10490574871846374,1.0,0.0
86855.20214650228,86855.20214650228,86855.20214650228,86855.20214650228,0.15347077566525089,0.09558932837889458,0.14855482566123993,0.10383921402281125,0.197264433199014,0.0
86855.20714650229,86855.20714650229,86855.20714650229,86855.20714650229,0.15407356586179205,0.09447713523445206,0.1492316372117594,0.10276735060425296,0.20400659875630345,0.0
86855.2121465023,86855.2121465023,86855.2121465023,86855.2121465023,0.15466577599807335,0.16158516040428866,0.14989855249471343,0.10690186825284907,0.21065018107535755,0.0
86855.2171465023,86855.2171465023,86855.2171465023,86855.2171465023,0.15524737045574152,0.09223930186698072,0.15055549304256458,0.10587294626020259,0.2171943984893621,0.0
86855.2221465023,86855.2221465023,86855.2221465023,86855.2221465023,0.38868248326129545,0.09111402069161358,0.17546176583995374,0.10484034363128734,0.46530218342023405,0.0
86855.22714650231,86855.22714650231,86855.22714650231,86855.22714650231,0.15637925186397594,0.3311821503493869,0.17601083043733923,0.13085999594020767,0.4707717774518049,0.0
86855.23214650231,86855.23214650231,86855.23214650231,86855.23214650231,0.15692910209842167,0.08885119774448572,0.1765517072404299,0.1300369541770466,0.47615980747247444,0.0
86855.23714650232,86855.23714650232,86855.23714650232,86855.23714650232,0.15746840993966482,0.0877139233885576,0.17708430740402936,0.12921449699305826,0.481465388436734,0.0
86855.24214650232,86855.24214650232,86855.24214650232,86855.24214650232,0.15799702326145346,0.08657289447239062,0.17760855889906002,0.12839284536927806,0.48668780281550805,0.0
86855.24714650233,86855.24714650233,86855.24714650233,86855.24714650233,0.3089545215426738,0.08542814440591383,0.1900622579394055,0.12757220825506024,0.6107473001249467,0.0
86855.25214650233,86855.25214650233,86855.25214650233,86855.25214650233,0.15902155787584935,0.08427989651304116,0.1905377590625469,0.126752812426552,0.6154840799456158,0.0
86855.25714650234,86855.25714650234,86855.25714650234,86855.25714650234,0.15951753701807858,0.08312821114176237,0.19100534974440603,0.12593487441710755,0.6201420586513876,0.0
86855.26214650234,86855.26214650234,86855.26214650234,86855.26214650234,0.16000255567843844,0.08197321021586704,0.1914649540838661,0.12511862268703297,0.6247204801412546,0.0
86855.26714650234,86855.26714650234,86855.26714650234,86855.26714650234,0.1604765607707588,0.08081500813070104,0.19191648822276058,0.1243042831972877,0.6292185090487964,0.0
86855.27214650235,86855.27214650235,86855.27214650235,86855.27214650235,0.539515424420235,0.07965372130382846,0.23146442480575663,0.12349208426312315,1.0,0.0
86855.27714650235,86855.27714650235,86855.27714650235,86855.27714650235,0.16139136707457136,0.07848947244604801,0.23182618011156608,0.12268225485981421,1.0,0.0
86855.28214650236,86855.28214650236,86855.28214650236,86855.28214650236,0.16183183541961302,0.07732231315395602,0.2321812746182807,0.12187503613624204,1.0,0.0
86855.28714650236,86855.28714650236,86855.28714650236,86855.28714650236,0.16226169047153038,0.07615255962235226,0.23252963534666155,0.12107065968533927,1.0,0.0
86855.29214650237,86855.29214650237,86855.29214650237,86855.29214650237,0.7847744646028391,0.07498012310037529,0.3017728822163707,0.11566166418253056,1.0,0.0
86855.29714650237,86855.29714650237,86855.29714650237,86855.29714650237,0.16308700282639074,0.07380516191935618,0.30203120529138644,0.11483168174021977,1.0,0.0
86855.30214650238,86855.30214650238,86855.30214650238,86855.30214650238,0.16348278427283355,0.07262784822412817,0.288879097923737,0.1140049564908444,1.0,0.0
86855.30714650238,86855.30714650238,86855.30714650238,86855.30714650238,0.1638671422151403,0.07144825672124461,0.2891383861319624,0.0803808583985213,1.0,0.0
86855.31214650239,86855.31214650239,86855.31214650239,86855.31214650239,0.16424019114722585,0.07026653523558753,0.28939205658831074,0.07922285378266586,1.0,0.0
86855.31714650239,86855.31714650239,86855.31714650239,86855.31714650239,0.16460174190581164,0.06908277408305145,0.2896400386656787,0.07806202113636576,1.0,0.0
86855.3221465024,86855.3221465024,86855.3221465024,86855.3221465024,0.1649518444597226,0.4358182614024845,0.28988226959440777,0.13227375902292263,1.0,0.0
86855.3271465024,86855.3271465024,86855.3271465024,86855.3271465024,0.16529050690526104,0.06670965916118315,0.2824420005610238,0.13159924201568157,1.0,0.0
86855.3321465024,86855.3321465024,86855.3321465024,86855.3321465024,0.1656174037052554,0.39043401103454434,0.282678815910768,0.1624864194328838,1.0,0.15076940315222795
86855.33714650241,86855.33714650241,86855.33714650241,86855.33714650241,0.16593321934108496,0.06432986836690581,0.2829095478350815,0.1619524267490261,1.0,0.14576391634224045
86855.34214650241,86855.34214650241,86855.34214650241,86855.34214650241,0.16623724615016816,0.06313776806610646,0.28313413343810695,0.16142416699522824,1.0,0.14081216829434573
86855.34714650242,86855.34714650242,86855.34714650242,86855.34714650242,0.16652945772389238,0.061944332667077696,0.2833525116812279,0.1609017988269665,1.0,0.13591564619725985
86855.35214650242,86855.35214650242,86855.35214650242,86855.35214650242,0.16681018523601987,0.06074972081283694,0.25265676800850984,0.1603854799992325,1.0,0.1310758287988262
86855.35714650243,86855.35714650243,86855.35714650243,86855.35714650243,0.1670791829106745,0.05955402901704045,0.2528877417358336,0.1598753655587398,1.0,0.12629416946030464
86855.36214650243,86855.36214650243,86855.36214650243,86855.36214650243,0.1673364335590609,0.1677463219222168,0.2531115487493829,0.16414974272893418,1.0,0.16636089545316685
86855.36714650244,86855.36714650244,86855.36714650244,86855.36714650244,0.16758182392155938,0.05715988574870371,0.2533281110140535,0.16366701118608426,1.0,0.1618359151612195
86855.37214650244,86855.37214650244,86855.37214650244,86855.37214650244,0.1678157969498942,0.05596169757884507,0.1656602869376879,0.16319082800994286,0.3676631974800024,0.1573723172892515
86855.37714650245,86855.37714650245,86855.37714650245,86855.37714650245,0.16803782887464017,0.054762902981354264,0.16596924265779658,0.1627213329518703,0.3707409088654621,0.15297141182448157
86855.38214650245,86855.38214650245,86855.38214650245,86855.38214650245,0.1682479719671708,0.05356362919109457,0.16626661410440857,0.16225866178662637,0.37370322167399783,0.14863447147867123
86855.38714650246,86855.38714650246,86855.38714650246,86855.38714650246,0.16844642314909533,0.3784407730476624,0.16655238451945759,0.1869756900162753,0.3765499689674756,0.38032445998526504
86855.39214650246,86855.39214650246,86855.39214650246,86855.39214650246,0.2522803315235133,0.05116413854524306,0.17329629141866623,0.18658760034030583,0.4437304666739843,0.37668662408810677
86855.39714650247,86855.39714650247,86855.39714650247,86855.39714650247,0.6325603884911579,0.05017446418506153,0.23096869181247673,0.18620955413077414,1.0,0.3731429326245718
86855.40214650247,86855.40214650247,86855.40214650247,86855.40214650247,0.16897031439804194,0.051235818870600275,0.23115017328002624,0.15154857326876336,1.0,0.048241322975821066
86855.40714650248,86855.40714650248,86855.40714650248,86855.40714650248,0.1691212721522985,0.052435672803406094,0.23132329848336614,0.15119747892113408,1.0,0.044950270159472276
86855.41214650248,86855.41214650248,86855.41214650248,86855.41214650248,0.16926033818215333,0.05363528479834746,0.23148804402320916,0.11624566360637546,1.0,0.0
86855.41714650248,86855.41714650248,86855.41714650248,86855.41714650248,0.16938737287533184,0.054834530722524276,0.23164435040862877,0.11594108490738995,1.0,0.0
86855.42214650249,86855.42214650249,86855.42214650249,86855.42214650249,0.1695024653998721,0.17579093952965516,0.23179219478187957,0.12298207170569393,1.0,0.0
86855.4271465025,86855.4271465025,86855.4271465025,86855.4271465025,0.1696057072559596,0.12525709749909036,0.23193156057240158,0.12595775072934134,1.0,0.0
86855.4321465025,86855.4321465025,86855.4321465025,86855.4321465025,0.16969684976803392,0.05842888876462078,0.2320624058787195,0.12588910942873222,1.0,0.0
86855.4371465025,86855.4371465025,86855.4371465025,86855.4371465025,0.16977617649228718,0.059625489081678654,0.23218471368419077,0.12589122351762053,1.0,0.0
86855.44214650251,86855.44214650251,86855.44214650251,86855.44214650251,0.47714434927403654,0.06082111637802596,0.2576602788005983,0.11967089825309798,1.0,0.0
86855.44714650251,86855.44714650251,86855.44714650251,86855.44714650251,0.6382759264101912,0.062015659800063815,0.3001597073717115,0.11982191779388841,1.0,0.0
86855.45214650252,86855.45214650252,86855.45214650252,86855.45214650252,0.16994194871141552,0.06320901218317214,0.30023446286792355,0.12004695419036876,1.0,0.0
86855.45714650252,86855.45714650252,86855.45714650252,86855.45714650252,0.16997330551228051,0.06440104619227931,0.30030254908085163,0.1203455593732759,1.0,0.0
86855.46214650253,86855.46214650253,86855.46214650253,86855.46214650253,0.16999260087133086,0.06559163290998188,0.30036395007049893,0.1207171431771249,1.0,0.0
86855.46714650253,86855.46714650253,86855.46714650253,86855.46714650253,0.1699998851372628,0.06678065877203568,0.30041864575811217,0.0768132053224974,1.0,0.0
86855.47214650254,86855.47214650254,86855.47214650254,86855.47214650254,0.16999509510257121,0.06796799519288847,0.2967821981470089,0.0776233596799805,1.0,0.0
86855.47714650254,86855.47714650254,86855.47714650254,86855.47714650254,0.169978462973877,0.06915355803277957,0.25470998250196303,0.07852981647933835,1.0,0.0
86855.48214650255,86855.48214650255,86855.48214650255,86855.48214650255,0.16994977127859012,0.07033719651129637,0.254750706646257,0.07944853888610252,1.0,0.0
86855.48714650255,86855.48714650255,86855.48714650255,86855.48714650255,0.16990901878626719,0.07151878953750063,0.25478346573104693,0.08037356638408402,1.0,0.0
86855.49214650255,86855.49214650255,86855.49214650255,86855.49214650255,0.16985643411450968,0.07269825948714127,0.2548082583884568,0.08130454166658221,1.0,0.0
86855.49714650256,86855.49714650256,86855.49714650256,86855.49714650256,0.16979170479181302,0.07387542981173699,0.2548250769662692,0.08224111247580095,1.0,0.0
86855.50214650256,86855.50214650256,86855.50214650256,86855.50214650256,0.16971501750321044,0.32337992027784773,0.2548339188328499,0.10662132986599872,1.0,0.0
86855.50714650257,86855.50714650257,86855.50714650257,86855.50714650257,0.16962650212652441,0.07622252762110283,0.2548347838911034,0.10368529939236773,1.0,0.0
86855.51214650257,86855.51214650257,86855.51214650257,86855.51214650257,0.169525813284359,0.07739217080510981,0.25482766895513603,0.10445868621763156,1.0,0.0
86855.51714650258,86855.51714650258,86855.51714650258,86855.51714650258,0.16941314129374685,0.07855906521835249,0.2548125679029109,0.10523847971416211,1.0,0.0
86855.52214650258,86855.52214650258,86855.52214650258,86855.52214650258,0.34695321808614465,0.40960892473184796,0.2412960994396456,0.1460484647350155,1.0,0.0
86855.52714650259,86855.52714650259,86855.52714650259,86855.52714650259,0.1691524583194979,0.0808842844736632,0.18587585198146017,0.14662426262339318,0.5690437534924653,0.002082316066561958
86855.53214650259,86855.53214650259,86855.53214650259,86855.53214650259,0.8587530362195093,0.08204229742005412,0.280777250333976,0.14720613726643,1.0,0.0075366339604812
86855.5371465026,86855.5371465026,86855.5371465026,86855.5371465026,0.16884390222048898,0.5056937462312676,0.2807346575963683,0.19337350836677483,1.0,0.44029568493683235
86855.5421465026,86855.5421465026,86855.5421465026,86855.5421465026,0.16867182320262109,0.08434859302004828,0.2806848619007066,0.19382747525922794,1.0,0.4445510340474778
86855.5471465026,86855.5471465026,86855.5471465026,86855.5471465026,0.168487809358916,0.08549663288356181,0.2806278728315515,0.1942864284526626,1.0,0.44885312324379917
86855.55214650261,86855.55214650261,86855.55214650261,86855.55214650261,0.16829199957223798,0.08664113863721952,0.28056370855392104,0.19475024053709133,1.0,0.4532007582228946
86855.55714650262,86855.55714650262,86855.55714650262,86855.55714650262,0.1680844049652181,0.08778199478433123,0.2804923798249721,0.19521878160281517,1.0,0.4575927212503189
86855.56214650262,86855.56214650262,86855.56214650262,86855.56214650262,0.16786486723379543,0.08891902928391028,0.2804139006820763,0.1956919191617794,1.0,0.46202777042289556
86855.56714650262,86855.56714650262,86855.56714650262,86855.56714650262,0.4093104001333437,0.0900521537798912,0.2954633247253586,0.1961695199226638,1.0,0.46650465630787885
86855.57214650263,86855.57214650263,86855.57214650263,86855.57214650263,0.16739061348078874,0.09118135972819152,0.2953753575321134,0.19665145120498673,1.0,0.4710221351983399
86855.57714650263,86855.57714650263,86855.57714650263,86855.57714650263,0.16713597296565433,0.09230644286966815,0.29528067578139183,0.19713757766497406,1.0,0.4755789384224472
86855.58214650264,86855.58214650264,86855.58214650264,86855.58214650264,0.16686943902212342,0.09342723059475554,0.2951792953392999,0.18130872617918817,1.0,0.32720404542397746
86855.58714650264,86855.58714650264,86855.58714650264,86855.58714650264,0.4515971595370295,0.0945436869068297,0.31317526109894955,0.181847171760469,1.0,0.3322512723551154
86855.59214650265,86855.59214650265,86855.59214650265,86855.59214650265,0.24046424647724615,0.09565572166460301,0.31606407173768486,0.18238948212235145,1.0,0.33733472657720653
86855.59714650265,86855.59714650265,86855.59714650265,86855.59714650265,0.16600006692463795,0.2547358682510937,0.3159508633544186,0.1921870194087341,1.0,0.4291738943033649
86855.60214650266,86855.60214650266,86855.60214650266,86855.60214650266,0.1656871073078784,0.09786598571400353,0.30662220757576414,0.1644635002833461,1.0,0.16930196439964956
86855.60714650266,86855.60714650266,86855.60714650266,86855.60714650266,0.16536246048036957,0.0989639576732146,0.3064929689281991,0.16508018586635637,1.0,0.17508258957482492
86855.61214650267,86855.61214650267,86855.61214650267,86855.61214650267,0.1650262548535703,0.10005702262320067,0.2225960365232165,0.16570002139804313,0.9348376931566544,0.18089274142148665
86855.61714650267,86855.61714650267,86855.61714650267,86855.61714650267,0.16467854362747197,0.10114507893657794,0.22240091712768198,0.11005910783434288,0.9328939803652249,0.0
86855.62214650268,86855.62214650268,86855.62214650268,86855.62214650268,0.16431946315061663,0.10222806449425317,0.22219718003602054,0.11100225434153457,0.93086442102764,0.0
86855.62714650268,86855.62714650268,86855.62714650268,86855.62714650268,0.16394902514871143,0.10330586253809318,0.2219848713876694,0.11194486212605866,0.9287494747692182,0.0
86855.63214650268,86855.63214650268,86855.63214650268,86855.63214650268,0.16356703927786354,0.10437825908942713,0.22176402283989083,0.11288671549637225,0.9265494569487965,0.0
86855.63714650269,86855.63714650269,86855.63714650269,86855.63714650269,0.16317378438339833,0.10544525955535403,0.22153467927386594,0.11382760888821136,0.9242648146573756,0.0
86855.6421465027,86855.6421465027,86855.6421465027,86855.6421465027,0.16276917429413018,0.17418170646340814,0.221296890000821,0.11982807105939165,0.9218960391165534,0.0
86855.6471465027,86855.6471465027,86855.6471465027,86855.6471465027,0.16235303163951392,0.1075623534215806,0.20037161095228015,0.12072710323655209,0.7134455545326823,0.0
86855.6521465027,86855.6521465027,86855.6521465027,86855.6521465027,0.1619260990209839,0.10861248135067554,0.20009075498265613,0.12162523536397951,0.7106477632664061,0.0
86855.65714650271,86855.65714650271,86855.65714650271,86855.65714650271,0.1614878984270953,0.10965671149492638,0.19980066184069767,0.12252226354272436,0.7077579544435262,0.0
86855.66214650271,86855.66214650271,86855.66214650271,86855.66214650271,0.1610383809567731,0.11069488674065171,0.19950138188953007,0.12341798682527116,0.7047766297642992,0.0
86855.66714650272,86855.66714650272,86855.66714650272,86855.66714650272,0.3004147161978855,0.11172701568882727,0.1808179037767791,0.12431220999283411,0.5186582006011449,0.0
86855.67214650272,86855.67214650272,86855.67214650272,86855.67214650272,0.3972977815860111,0.11275296090774523,0.19734872412796223,0.1252047378194829,0.6833325882057072,0.0
86855.67714650273,86855.67714650273,86855.67714650273,86855.67714650273,0.15962352049594183,0.11377265145164565,0.1970196609344304,0.11148808109048763,0.6800545730360501,0.0
86855.68214650273,86855.68214650273,86855.68214650273,86855.68214650273,0.2133802802851974,0.11478597270587149,0.19986665479795895,0.11249209527064721,0.7084153537493288,0.0
86855.68714650274,86855.68714650274,86855.68714650274,86855.68714650274,0.15862544841692178,0.11579281323348978,0.19952508688623774,0.11349164469583926,0.7050127708470209,0.0
86855.69214650274,86855.69214650274,86855.69214650274,86855.69214650274,0.1581100097042127,0.116793024636703,0.19917474663110565,0.11448658695449758,0.7015228008551219,0.0
86855.69714650275,86855.69714650275,86855.69714650275,86855.69714650275,0.1575837678384444,0.11778656022458318,0.19881569610507646,0.11547678453272775,0.6979460621188183,0.0
86855.70214650275,86855.70214650275,86855.70214650275,86855.70214650275,0.15704660493014802,0.11877321085366939,0.19844798538186223,0.11646209219702605,0.694283053455331,0.0
86855.70714650275,86855.70714650275,86855.70714650275,86855.70714650275,0.15649924079587343,0.1197533085986482,0.1980717003947669,0.11744239449303465,0.6905346309028908,0.0
86855.71214650276,86855.71214650276,86855.71214650276,86855.71214650276,0.15594097605418936,0.12072627076322409,0.19768690327620908,0.11841755250752972,0.6867014134034353,0.0
86855.71714650276,86855.71714650276,86855.71714650276,86855.71714650276,0.15537206138884818,0.12169212307811694,0.1972936550521228,0.1193874307471636,0.682784008876481,0.0
86855.72214650277,86855.72214650277,86855.72214650277,86855.72214650277,0.15479272018022808,0.12265088218015566,0.19689203312056866,0.11531416596617859,0.6787831883350792,0.0
86855.72714650277,86855.72714650277,86855.72714650277,86855.72714650277,0.15420273484426023,0.12360226209381214,0.1964821143025056,0.11631465118395566,0.6746997170433904,0.0
86855.73214650278,86855.73214650278,86855.73214650278,86855.73214650278,0.15360238879955915,0.12454632268061483,0.19606395196359136,0.11730853673881685,0.6705341266118747,0.0
86855.73714650278,86855.73714650278,86855.73714650278,86855.73714650278,0.15299181566786757,0.12548302560735278,0.19563763161714542,0.1182957311171169,0.6662872688950208,0.0
86855.74214650279,86855.74214650279,86855.74214650279,86855.74214650279,0.1523707735123728,0.1264120566047073,0.19520323046696653,0.11927613186243442,0.6619599129707089,0.0
86855.74714650279,86855.74714650279,86855.74714650279,86855.74714650279,0.4020763225779735,0.8314226757835617,0.20631971343424216,0.23801384805896847,0.7726985203757335,0.8587408027770241
86855.7521465028,86855.7521465028,86855.7521465028,86855.7521465028,0.5090464157616126,0.12824713786796063,0.22112890931705192,0.23850361214026505,0.9202226729047496,0.8633317039692003
86855.7571465028,86855.7571465028,86855.7571465028,86855.7571465028,0.15044664857952164,0.129153059566909,0.22072641979740376,0.2389926600128678,0.9162132097470078,0.8679158916364941
86855.7621465028,86855.7621465028,86855.7621465028,86855.7621465028,0.14978508134953097,0.3638308374847359,0.217432010195942,0.2541009793634254,0.8833954262302642,1.0
86855.76714650281,86855.76714650281,86855.76714650281,86855.76714650281,0.3616227773735122,0.1309409595237101,0.23211471640595016,0.25456021914024773,1.0,1.0
86855.77214650282,86855.77214650282,86855.77214650282,86855.77214650282,0.14843214289713305,0.13182284260083824,0.23171496377982956,0.25501852064203967,1.0,1.0
86855.77714650282,86855.77714650282,86855.77714650282,86855.77714650282,0.147740780016014,0.13269645271694017,0.23130930121070886,0.25547575823370583,1.0,1.0
86855.78214650282,86855.78214650282,86855.78214650282,86855.78214650282,0.14703971921903725,0.13356185655902675,0.2308978302373842,0.2559318149713409,1.0,1.0
86855.78714650283,86855.78714650283,86855.78714650283,86855.78714650283,0.14632902476421694,0.13441896572984638,0.23048062544008882,0.25638656191139786,1.0,1.0
86855.79214650283,86855.79214650283,86855.79214650283,86855.79214650283,0.14560846753977535,0.13526742996073135,0.23005778310277575,0.25683987609205794,1.0,1.0
86855.79714650284,86855.79714650284,86855.79714650284,86855.79714650284,0.14487866016755283,0.1361076444215982,0.2296294141887024,0.25729164741428107,1.0,1.0
86855.80214650284,86855.80214650284,86855.80214650284,86855.80214650284,0.144139209542425,0.1369391094114272,0.22919560577117679,0.25774174938944455,1.0,1.0
86855.80714650285,86855.80714650285,86855.80714650285,86855.80714650285,0.17089393308856765,0.16619115185132483,0.22993426563505293,0.2592338386732458,1.0,1.0
86855.81214650285,86855.81214650285,86855.81214650285,86855.81214650285,0.14263211262243633,0.13857584696624534,0.22949216897264516,0.25967845606169987,1.0,1.0
86855.81714650286,86855.81714650286,86855.81714650286,86855.81714650286,0.14186473132866956,0.13938106631056035,0.22904497323805084,0.2601210656371981,0.9990797986090869,1.0
86855.82214650286,86855.82214650286,86855.82214650286,86855.82214650286,0.14108798039743395,0.1401771687435457,0.22859278229006086,0.2605615487741847,0.9945752267936144,1.0
86855.82714650287,86855.82714650287,86855.82714650287,86855.82714650287,0.14030213658780585,0.14096426598970693,0.2082807423579793,0.16102879976741516,0.7922336208868305,0.137106114815068
86855.83214650287,86855.83214650287,86855.83214650287,86855.83214650287,0.13950747894694,0.14174248543389867,0.16852818115181836,0.16173434883285534,0.3962321803491921,0.14371971954715254
86855.83714650288,86855.83714650288,86855.83714650288,86855.83714650288,0.138703788155146,0.14251144914529187,0.1678973853759379,0.1624340238797358,0.3899484082259759,0.15027826299598143
86855.84214650288,86855.84214650288,86855.84214650288,86855.84214650288,0.1378911705172974,0.1432711034636844,0.16725932645314656,0.13926385133153243,0.3835922831133604,0.0
86855.84714650289,86855.84714650289,86855.84714650289,86855.84714650289,0.1370697506935797,0.14402141593390427,0.14483352512644287,0.14006858988761442,0.16019410797366151,0.0
86855.85214650289,86855.85214650289,86855.85214650289,86855.85214650289,0.13623962827461458,0.1447623304054077,0.14408268790789058,0.14086479076642844,0.152714523988771,0.0
86855.8571465029,86855.8571465029,86855.8571465029,86855.8571465029,0.13540097314467336,0.14549386974201156,0.14332289173510146,0.1416523795272164,0.14514569396096272,0.0
86855.8621465029,86855.8621465029,86855.8621465029,86855.8621465029,0.1345536498103656,0.14621571673994094,0.14255420600035426,0.14243125804792672,0.13748830915242247,0.0
86855.8671465029,86855.8671465029,86855.8671465029,86855.8671465029,0.1336979586521093,0.14692804136570833,0.14177671420087762,0.14320134498703285,0.12974320133403028,0.0
86855.87214650291,86855.87214650291,86855.87214650291,86855.87214650291,0.1328338646974989,0.14763063522933018,0.14099051316151315,0.14396256678116828,0.12191133504179583,0.0
86855.87714650291,86855.87714650291,86855.87714650291,86855.87714650291,0.13196142945209727,0.22412444192477854,0.1401956645005126,0.15068800647896108,0.11399332409570245,0.040174628720106326
86855.88214650292,86855.88214650292,86855.88214650292,86855.88214650292,0.131080897697146,0.5182159251548923,0.13939227012495597,0.19575262292996878,0.10599018365928313,0.46259678928808573
86855.88714650292,86855.88714650292,86855.88714650292,86855.88714650292,0.1301922826963114,0.14967962477505586,0.13661729704648848,0.1949182394721137,0.07834684941404249,0.4547755297109071
86855.89214650293,86855.89214650293,86855.89214650293,86855.89214650293,0.12929553632237778,0.15034269759417107,0.13578521407869845,0.19546252559953983,0.070057923018009,0.4598775041649554
86855.89714650293,86855.89714650293,86855.89714650293,86855.89714650293,0.12839089321353353,0.15099577646956297,0.13494457409979033,0.19600099258131795,0.06168375459915617,0.4649249316979183
86855.90214650294,86855.90214650294,86855.90214650294,86855.90214650294,0.12747843022556155,0.1516387799185908,0.13409547466817429,0.1965335382358492,0.05322531600105321,0.46991685449022147
86855.90714650294,86855.90714650294,86855.90714650294,86855.90714650294,0.126558255878864,0.1522716686136983,0.1332380022327818,0.19706005480570116,0.04468346839843584,0.474852262456103
86855.91214650295,86855.91214650295,86855.91214650295,86855.91214650295,0.125630379451727,0.15289426891860153,0.1323722259819772,0.19758042167867837,0.03605890102216436,0.47973002501311957
86855.91714650295,86855.91714650295,86855.91714650295,86855.91714650295,0.12469489945887847,0.15350652345374483,0.13149823584492742,0.19809453363497845,0.027352509715891465,0.48454915586249026
86855.92214650296,86855.92214650296,86855.92214650296,86855.92214650296,0.1237519800486285,0.15410846739533576,0.1306161250919503,0.1986022908245571,0.01856522360667491,0.4893087190399318
86855.92714650296,86855.92714650296,86855.92714650296,86855.92714650296,0.3179516282406832,0.15470014029784013,0.14901222170728934,0.19910359801695512,0.20182085642398384,0.4940078218837618
86855.93214650296,86855.93214650296,86855.93214650296,86855.93214650296,0.12184421593081574,0.15528121473441647,0.14823103844456545,0.19959834781971325,0.19403897550923643,0.4986454577293676
86855.93714650297,86855.93714650297,86855.93714650297,86855.93714650297,0.12087944436988589,0.155851731080671,0.14744436846576991,0.20008643494532619,0.18620243780251716,0.5032206396433417
86855.94214650297,86855.94214650297,86855.94214650297,86855.94214650297,0.1199074808541853,0.15641150210846796,0.14665234995641518,0.200567760581701,0.17831261986071528,0.5077324413908447
86855.94714650298,86855.94714650298,86855.94714650298,86855.94714650298,0.11892878149610504,0.1569610199837242,0.14585512908452797,0.2010422433549266,0.17037097775980126,0.5121801001973085
86855.95214650298,86855.95214650298,86855.95214650298,86855.95214650298,0.11794308877042438,0.15749968982460139,0.14505284284151065,0.20150978351675855,0.16237887616134758,0.5165626810526914
86855.95714650299,86855.95714650299,86855.95714650299,86855.95714650299,0.11695059294805003,0.15802759648546466,0.14424563637037766,0.19755379669700318,0.15433776093050228,0.4794804504428679
86855.96214650299,86855.96214650299,86855.96214650299,86855.96214650299,0.1159514063389716,0.1585447083993865,0.14343364857165208,0.15431880979560614,0.1462490157468466,0.07420868697692069
86855.967146503,86855.967146503,86855.967146503,86855.967146503,0.1149456000972966,0.15905092581932087,0.14261702326275572,0.15490358449671626,0.13811407327042732,0.07969018914297119
86855.972146503,86855.972146503,86855.972146503,86855.972146503,0.1139333406684199,0.1595463083534085,0.14179591751709686,0.15547789747022916,0.1299344982129026,0.08507362622108962
86855.977146503,86855.977146503,86855.977146503,86855.977146503,0.11291458276210921,0.16003055473858901,0.14097047499663218,0.1560416770382403,0.12171172168562885,0.0903583263241572
86855.98214650301,86855.98214650301,86855.98214650301,86855.98214650301,0.11188950907514406,0.160503749424034,0.140140846383362,0.15659486213843316,0.11344724473124033,0.09554371707238489
86855.98714650302,86855.98714650302,86855.98714650302,86855.98714650302,0.11085843300725953,0.16096622638236419,0.1393071940978027,0.15713741568764278,0.10514268532746011,0.1006294508593376
86855.99214650302,86855.99214650302,86855.99214650302,86855.99214650302,0.1098212142119755,0.3330582980828861,0.13846967540048563,0.17367819577410468,0.09679961005000184,0.2556777484344255
86855.99714650302,86855.99714650302,86855.99714650302,86855.99714650302,0.10877801995981107,0.16185766233843996,0.1376284526732143,0.1741514249712698,0.08841963649094425,0.2601136565959356
86856.00214650303,86856.00214650303,86856.00214650303,86856.00214650303,0.10772885691976793,0.16228645766633046,0.13678368182344858,0.17461510811842132,0.08000431774716517,0.2644600829557747
86856.00714650303,86856.00714650303,86856.00714650303,86856.00714650303,0.10667400729744907,0.16270419143742054,0.11446683901431051,0.17506918208140973,0.0,0.2687164357134146
86856.01214650304,86856.01214650304,86856.01214650304,86856.01214650304,0.105613446468247,0.163110568917454,0.11345447954520001,0.1755135853498313,0.0,0.2728821382888309
86856.01714650304,86856.01714650304,86856.01714650304,86856.01714650304,0.10454725952499726,0.16350549970486136,0.11243581287365974,0.17594824960598054,0.0,0.2769565502924003
86856.02214650305,86856.02214650305,86856.02214650305,86856.02214650305,0.1034757516090463,0.16388935743042585,0.11141095644931828,0.17637313927396683,0.0,0.2809393382464242
86856.02714650305,86856.02714650305,86856.02714650305,86856.02714650305,0.10239883928704455,0.16426170818496472,0.11037999328751112,0.17678816686559812,0.0,0.284829682062904
86856.03214650306,86856.03214650306,86856.03214650306,86856.03214650306,0.10131668554017972,0.6682071197297138,0.10934303397752286,0.24002076702623718,0.0,0.8775530575570057
86856.03714650306,86856.03714650306,86856.03714650306,86856.03714650306,0.10022937824959366,0.1649720387417496,0.10830018246289888,0.2403126284105571,0.0,0.880288878390737
86856.04214650307,86856.04214650307,86856.04214650307,86856.04214650307,0.09913700452143424,0.165309846232279,0.10725154118282305,0.24059736473480717,0.0,0.8829579110543716
86856.04714650307,86856.04714650307,86856.04714650307,86856.04714650307,0.0980398529643988,0.16563644203806746,0.10619722547135058,0.24087492924290452,0.0,0.8855597172704511
86856.05214650308,86856.05214650308,86856.05214650308,86856.05214650308,0.0969378348403147,0.16595132834374582,0.10513733544532,0.24114525232137593,0.0,0.8880936445032153
86856.05714650308,86856.05714650308,86856.05714650308,86856.05714650308,0.09583113002746589,0.16625463818536454,0.10407198571021278,0.24140828353414664,0.0,0.8905592199800689
86856.06214650309,86856.06214650309,86856.06214650309,86856.06214650309,0.09471980661247051,0.3978515291641044,0.10300128363226074,0.25799366942590496,0.0,1.0
86856.06714650309,86856.06714650309,86856.06714650309,86856.06714650309,0.09360402287863753,0.1668262008990839,0.1019253255478411,0.2582262320490665,0.0,1.0
86856.0721465031,86856.0721465031,86856.0721465031,86856.0721465031,0.09248390867176216,0.24831131038068688,0.10084422581410786,0.2521932874346131,0.0,0.9916546027472124
86856.0771465031,86856.0771465031,86856.0771465031,86856.0771465031,0.09135950375298146,0.16735110844167655,0.09975809095643648,0.2524172832672408,0.0,0.9937542723112409
86856.0821465031,86856.0821465031,86856.0821465031,86856.0821465031,0.09023101620284138,0.1675960659346791,0.09866704016923536,0.2526340368555778,0.0,0.9957860552555321
86856.08714650311,86856.08714650311,86856.08714650311,86856.08714650311,0.0890984451451155,0.16782908752190037,0.09757117470931828,0.25284348591992833,0.0,0.9977493677889493
86856.09214650311,86856.09214650311,86856.09214650311,86856.09214650311,0.08796195725878109,0.16805029938767976,0.09647060821708708,0.25304558623225,0.0,0.999643795331125
86856.09714650312,86856.09714650312,86856.09714650312,86856.09714650312,0.08682173969081498,0.16825991324688327,0.09536546053378939,0.2532403069909688,0.0,1.0
86856.10214650312,86856.10214650312,86856.10214650312,86856.10214650312,0.08567782014766107,0.16845764171367603,0.09425583360571965,0.2534275913514126,0.0,1.0
86856.10714650313,86856.10714650313,86856.10714650313,86856.10714650313,0.08453034556401057,0.16864357036348313,0.09314184469573236,0.25360740451285596,0.0,1.0
86856.11214650313,86856.11214650313,86856.11214650313,86856.11214650313,0.08337938347030689,0.16881751836188283,0.09202360517559599,0.19542678450450793,0.0,0.459542477889943
86856.11714650314,86856.11714650314,86856.11714650314,86856.11714650314,0.08222509421929863,0.16897962154624968,0.09090123087976314,0.1956406764580871,0.0,0.46154743673070564
86856.12214650314,86856.12214650314,86856.12214650314,86856.12214650314,0.30797421042313455,0.16912980639829076,0.11651944822313096,0.19584463464546173,0.0,0.4634592794348365
86856.12714650315,86856.12714650315,86856.12714650315,86856.12714650315,0.0799069662430693,0.16926812987390003,0.11565082671355414,0.19603861283727492,0.0,0.46527757266224873
86856.13214650315,86856.13214650315,86856.13214650315,86856.13214650315,0.07874332602003459,0.5125679010694333,0.11478386947912851,0.23050002893143504,0.0,0.7883085222000814
86856.13714650316,86856.13714650316,86856.13714650316,86856.13714650316,0.07757686064271925,0.16950886943104507,0.11391881728517918,0.23064811747225505,0.0,0.7896966596412723
86856.14214650316,86856.14214650316,86856.14214650316,86856.14214650316,0.5146792433338874,0.1696113598770109,0.1702136217853362,0.21237629335054023,0.4130219644175024,0.618422075924266
86856.14714650316,86856.14714650316,86856.14714650316,86856.14714650316,0.07523572455462253,0.16970179810174715,0.16964329006232057,0.21251864015445507,0.40734051454243125,0.6197563920506448
86856.15214650317,86856.15214650317,86856.15214650317,86856.15214650317,0.4147856443786871,0.1697804199562734,0.19747711753994024,0.2076345411334442,0.6846115995336856,0.5739743168137162
86856.15714650317,86856.15714650317,86856.15714650317,86856.15714650317,0.07288450798129857,0.1698469062968727,0.19699634892045254,0.20776116408467316,0.679822346713092,0.5751612422742663
86856.16214650318,86856.16214650318,86856.16214650318,86856.16214650318,0.07170541523417173,0.393152047422225,0.1965198803710337,0.22598607699156517,0.6750759297221915,0.7459960943729672
86856.16714650318,86856.16714650318,86856.16714650318,86856.16714650318,0.07052414968356206,0.1699441483666575,0.19604784761284022,0.22608484619306043,0.6703737005688004,0.7469219271610608
86856.17214650319,86856.17214650319,86856.17214650319,86856.17214650319,0.06934082004085033,0.16997470662379227,0.1955803831320355,0.22617474171226992,0.665716979034839,0.7477645807203368
