timestamp,sample_timestamp,left_raw,right_raw
86852.7521465,86852.7521465,0.12900824291980142,0.1505518233814379
86852.75714650001,86852.75714650001,0.1281011497789446,0.15120176552461706
86852.76214650001,86852.76214650001,0.12718614520565347,0.15184145584944478
86852.76714650002,86852.76714650002,0.12626348643368807,0.15247104578794218
86852.77214650002,86852.77214650002,0.7724270476957003,0.1530904410506363
86852.77714650003,86852.77714650003,0.33385420968113516,0.15369950826484022
86852.78214650003,86852.78214650003,0.12345013941147369,0.1542981073651439
86852.78714650004,86852.78714650004,0.12249502641505987,0.15488270573264104
86852.79214650004,86852.79214650004,0.1215376898461141,0.1554640980203189
86852.79714650004,86852.79714650004,0.12057067498510445,0.15603128605722513
86852.80214650005,86852.80214650005,0.11959646754638073,0.15658766323338813
86852.80714650005,86852.80714650005,0.11861556951456698,0.15713379310858783
86852.81214650006,86852.81214650006,0.1176276529835589,0.15766896769022407
86852.81714650006,86852.81714650006,0.1166330036336205,0.15819342197836656
86852.82214650007,86852.82214650007,0.1789049568919054,0.15870711592075198
86852.82714650007,86852.82714650007,0.1146237994870154,0.1592097949437467
86852.83214650008,86852.83214650008,0.11360948969001253,0.1597016871032687
86852.83714650008,86852.83714650008,0.11258878611663375,0.16018255295171907
86852.84214650009,86852.84214650009,0.5148606006170684,0.16065241842879313
86852.84714650009,86852.84714650009,0.4676122371503218,0.324879915048384
86852.8521465001,86852.8521465001,0.10948954600738363,0.16155887682951864
86852.8571465001,86852.8571465001,0.10844445222945978,0.16199544288149725
86852.8621465001,86852.8621465001,0.10739350113040606,0.16242078595991574
86852.86714650011,86852.86714650011,0.1063367537852877,0.16283477399141025
86852.87214650011,86852.87214650011,0.10527440936161156,0.16323754939475962
86852.87714650012,86852.87714650012,0.10420657550145945,0.16362907981639244
86852.88214650012,86852.88214650012,0.10313327172428328,0.1640091441654014
86852.88714650013,86852.88714650013,0.10205470967251425,0.16437792615105104
86852.89214650013,86852.89214650013,0.10097087930539116,0.45964178844808
86852.89714650014,86852.89714650014,0.09988203473700638,0.16508105359992772
86852.90214650014,86852.90214650014,0.09878814218623268,0.16541533111499399
86852.90714650015,86852.90714650015,0.09768937164880012,0.1657380683194252
86852.91214650015,86852.91214650015,0.22380191642738684,0.1660492167193266
86852.91714650016,86852.91714650016,0.09547758299773527,0.20926836754864536
86852.92214650016,86852.92214650016,0.09436491365747543,0.16663677655360806
86852.92714650017,86852.92714650017,0.09324774501960736,0.16691307246617043
86852.93214650017,86852.93214650017,0.0921261944152789,0.1671775193628258
86852.93714650018,86852.93714650018,0.09100046222759138,0.1674303294553714
86852.94214650018,86852.94214650018,0.08987069470704348,0.1676715839552231
86852.94714650018,86852.94714650018,0.104708723935281,0.1679009817754826
86852.95214650019,86852.95214650019,0.08759920339628018,0.16811845391953062
86852.9571465002,86852.9571465002,0.0864577856968715,0.23289493112996013
86852.9621465002,86852.9621465002,0.08531268152427407,0.16851810048087112
86852.9671465002,86852.9671465002,0.08416407281495406,0.40902206344384906
86852.97214650021,86852.97214650021,0.0830120650333776,0.16887044606791496
86852.97714650021,86852.97714650021,0.08185672566502236,0.16902871965991775
86852.98214650022,86852.98214650022,0.08069820008302846,0.16917508590078306
86852.98714650022,86852.98714650022,0.07953664214301517,0.16930968232663893
86852.99214650023,86852.99214650023,0.07837208430047292,0.16943216217934412
86852.99714650023,86852.99714650023,0.0772047134754826,0.1695427977835389
86853.00214650024,86853.00214650024,0.07603460445580913,0.16964140022359284
86853.00714650024,86853.00714650024,0.07486192178619962,0.16972817567450973
86853.01214650024,86853.01214650024,0.07368674562369863,0.1698029487001294
86853.01714650025,86853.01714650025,0.07250916598994334,0.16986556111226503
86853.02214650025,86853.02214650025,0.07132935913638949,0.16991630653915943
86853.02714650026,86853.02714650026,0.07014741081304814,0.16995500744177353
86853.03214650026,86853.03214650026,0.06896348025580033,0.16998190941680533
86853.03714650027,86853.03714650027,0.06777763712957019,0.16999672057135953
86853.04214650027,86853.04214650027,0.06659000483957313,0.16999945601764466
86853.04714650028,86853.04714650028,0.06540072679734946,0.16999028860374013
86853.05214650028,86853.05214650028,0.06420989816335497,0.16996904174824157
86853.05714650029,86853.05714650029,0.06301764733819687,0.1699357837550131
86853.06214650029,86853.06214650029,0.061824095887941376,0.16989053668352597
86853.0671465003,86853.0671465003,0.0606293735451595,0.16983342276659555
86853.0721465003,86853.0721465003,0.08276105080721101,0.16976426523850222
86853.0771465003,86853.0771465003,0.058236835421338805,0.16968297660599074
86853.08214650031,86853.08214650031,0.05703926233458668,0.16958962581299805
86853.08714650031,86853.08714650031,0.055841011996051744,0.3050672560866562
86853.09214650032,86853.09214650032,0.054642167393784774,0.1693678260275728
86853.09714650032,86853.09714650032,0.05344285082369362,0.169238744878915
86853.10214650033,86853.10214650033,0.05224319387211056,0.1690978272986625
86853.10714650033,86853.10714650033,0.05104331331877516,0.16894505176039956
86853.11214650034,86853.11214650034,0.050184309247507955,0.1687804461327839
86853.11714650034,86853.11714650034,0.05135664278283254,0.16860385128239005
86853.12214650035,86853.12214650035,0.2475025569652372,0.16841537330754805
86853.12714650035,86853.12714650035,0.053756056475407085,0.16821510743279147
86853.13214650036,86853.13214650036,0.054955259937871516,0.16800300522324366
86853.13714650036,86853.13714650036,0.056153964956142055,0.488298433129306
86853.14214650037,86853.14214650037,0.05735205828659985,0.16754338191983437
86853.14714650037,86853.14714650037,0.058549418209498,0.16729598746526939
86853.15214650038,86853.15214650038,0.05974592613926257,0.16703688587085708
86853.15714650038,86853.15714650038,0.060941449057414,0.16676595595648633
86853.16214650038,86853.16214650038,0.06213587741329743,0.16648335877986023
86853.16714650039,86853.16714650039,0.06332910492370669,0.166189232001376
86853.1721465004,86853.1721465004,0.06452098639623355,0.1658833703206094
86853.1771465004,86853.1771465004,0.06571143175825107,0.16556604655118712
86853.1821465004,86853.1821465004,0.06690028258519129,0.16523699486445728
86853.18714650041,86853.18714650041,0.06808745231555659,0.1648964892613047
86853.19214650041,86853.19214650041,0.06927280900594486,0.16454447120700738
86853.19714650042,86853.19714650042,0.07045619009637442,0.1641807350359661
86853.20214650042,86853.20214650042,0.07163764649884809,0.16380625336764826
86853.20714650043,86853.20714650043,0.07281690047798664,0.16567562707786876
86853.21214650043,86853.21214650043,0.0739938254262828,0.16302248607223832
86853.21714650044,86853.21714650044,0.07516837422675626,0.16261362528557607
86853.22214650044,86853.22214650044,0.07634041189129954,0.16219352722779065
86853.22714650045,86853.22714650045,0.07750979741576151,0.16176213315180485
86853.23214650045,86853.23214650045,0.07867647105999845,0.16131971868500536
86853.23714650045,86853.23714650045,0.07984021614565141,0.16086593663817722
86853.24214650046,86853.24214650046,0.081001035448959,0.16040128593538233
86853.24714650046,86853.24714650046,0.08215873249372987,0.15992551201126223
86853.25214650047,86853.25214650047,0.08341584035678451,0.15943876620700972
86853.25714650047,86853.25714650047,0.08446433674706302,0.1589409483597979
86853.26214650048,86853.26214650048,0.0856120516815537,0.15843237987399364
86853.26714650048,86853.26714650048,0.5505247899596453,0.15791285611991887
86853.27214650049,86853.27214650049,0.08789665876195309,0.157382686156714
86853.27714650049,86853.27714650049,0.08903331577221477,0.1568416531156249
86853.2821465005,86853.2821465005,0.5750744769432499,0.15628985352630229
86853.2871465005,86853.2871465005,0.09129485597698199,0.2257392999660884
86853.2921465005,86853.2921465005,0.09241945510922624,0.15515478915275138
86853.29714650051,86853.29714650051,0.09353984335788645,0.15457141652705353
86853.30214650051,86853.30214650051,0.09465591179795338,0.15397766582911315
86853.30714650052,86853.30714650052,0.09576742957151928,0.1533733194558936
86853.31214650052,86853.31214650052,0.1923458920884361,0.15275879661479289
86853.31714650053,86853.31714650053,0.09797674297492692,0.15213394722291024
86853.32214650053,86853.32214650053,0.0990742625433801,0.1514989161099995
86853.32714650054,86853.32714650054,0.10016681020519283,0.1508536034029328
86853.33214650054,86853.33214650054,0.10125438464202774,0.1501982953021577
86853.33714650055,86853.33714650055,0.10233686156352512,0.14953302087540835
86853.34214650055,86853.34214650055,0.6050099456313534,0.1488577442721521
86853.34714650056,86853.34714650056,0.10448590559913466,0.1481724904540171
86853.35214650056,86853.35214650056,0.1055523334862925,0.14747751259022646
86853.35714650057,86853.35714650057,0.49367642231062026,0.14677290751763605
86853.36214650057,86853.36214650057,0.10766843814041578,0.14605841933360228
86853.36714650058,86853.36714650058,0.10871790964610396,0.1453344535242459
86853.37214650058,86853.37214650058,0.109761456712387,0.14460086890085597
86853.37714650058,86853.37714650058,0.11079911722896713,0.14385796469705664
86853.38214650059,86853.38214650059,0.1118305790336914,0.14310549089683186
86853.3871465006,86853.3871465006,0.4716049724647917,0.14234381363266477
86853.3921465006,86853.3921465006,0.11387497849424916,0.1415728831505645
86853.3971465006,86853.3971465006,0.11488759568119826,0.140792731298729
86853.40214650061,86853.40214650061,0.1158938064763602,0.1400036146101989
86853.40714650061,86853.40714650061,0.1168933759332387,0.13920542645068554
86853.41214650062,86853.41214650062,0.11788631438442176,0.20192612119245212
86853.41714650062,86853.41714650062,0.11887236769576101,0.13758239715259712
86853.42214650063,86853.42214650063,0.11985161496500639,0.13675774553018075
86853.42714650063,86853.42714650063,0.3457687841969632,0.13592439506014967
86853.43214650064,86853.43214650064,0.12178879161496403,0.13508217897095298
86853.43714650064,86853.43714650064,0.12274694217437096,0.13423192708440715
86853.44214650065,86853.44214650065,0.12369766686606615,0.1333730709368522
86853.44714650065,86853.44714650065,0.1246410575221271,0.13362578946150083
86853.45214650065,86853.45214650065,0.12557689611224057,0.131630411719009
86853.45714650066,86853.45714650066,0.126505159626573,0.13074672749499047
86853.46214650066,86853.46214650066,0.12742576017547444,0.1298549577589561
86853.46714650067,86853.46714650067,0.1283387637685346,0.5864155696585606
86853.47214650067,86853.47214650067,0.12924377103113524,0.12804768678013487
86853.47714650068,86853.47714650068,0.35856276908101614,0.12713226888363555
86853.48214650068,86853.48214650068,0.1310301048463126,0.12620921391753007
86853.48714650069,86853.48714650069,0.13191121249945745,0.12527854555664109
86853.49214650069,86853.49214650069,0.13278396288394054,0.12434019709085968
86853.4971465007,86853.4971465007,0.1336485673192253,0.12339453503273379
86853.5021465007,86853.5021465007,0.13450475852780777,0.2700072725200816
86853.5071465007,86853.5071465007,0.13535248913896716,0.12148119360561609
86853.51214650071,86853.51214650071,0.13619169216482577,0.12051375577350887
86853.51714650072,86853.51714650072,0.13702238054895965,0.11953935099611111
86853.52214650072,86853.52214650072,0.13784429958000538,0.11855793634324549
86853.52714650072,86853.52714650072,0.1386573774835654,0.11756962197548175
86853.53214650073,86853.53214650073,0.1394612804431709,0.11657432218066362
86853.53714650073,86853.53714650073,0.14025688962358526,0.11557285033257006
86853.54214650074,86853.54214650074,0.14104314026357848,0.1145645746040654
86853.54714650074,86853.54714650074,0.14182030566717083,0.11354985648976239
86853.55214650075,86853.55214650075,0.14258830537851563,0.11252879469654135
86853.55714650075,86853.55714650075,0.14334712891285006,0.11150153415960251
86853.56214650076,86853.56214650076,0.1440964688037028,0.1104680247610795
86853.56714650076,86853.56714650076,0.14483641754767587,0.3762207287762834
86853.57214650077,86853.57214650077,0.7351997090945259,0.10838304674575053
86853.57714650077,86853.57714650077,0.1462879359096778,0.10733176186332785
86853.58214650078,86853.58214650078,0.14699903147148385,0.10627459913985675
86853.58714650078,86853.58714650078,0.14770084605314185,0.10521205237942725
86853.59214650079,86853.59214650079,0.15256934722373997,0.10414390383463956
86853.59714650079,86853.59714650079,0.5691622148922301,0.5060257773325754
86853.6021465008,86853.6021465008,0.14974675437583468,0.10199134468741033
86853.6071465008,86853.6071465008,0.1504088864170327,0.10090724555428157
86853.6121465008,86853.6121465008,0.2621069015496793,0.09981809303790261
86853.61714650081,86853.61714650081,0.1517029312241023,0.09872386873040635
86853.62214650081,86853.62214650081,0.15233475400077043,0.09762482837737453
86853.62714650082,86853.62714650082,0.15295634640039854,0.09652102655715959
86853.63214650082,86853.63214650082,0.1535676594137756,0.09541257942358519
86853.63714650083,86853.63714650083,0.15416859392663743,0.0942995808471844
86853.64214650083,86853.64214650083,0.15475910068307305,0.09318214770930876
86853.64714650084,86853.64714650084,0.7154671757475601,0.09206034491687895
86853.65214650084,86853.65214650084,0.15590853266561358,0.09093440161428756
86853.65714650085,86853.65714650085,0.15646748849716396,0.08980437043196147
86853.66214650085,86853.66214650085,0.1570156204791015,0.08867029354780452
86853.66714650085,86853.66714650085,0.15755338060397825,0.13405618670837904
86853.67214650086,86853.67214650086,0.15808013440913246,0.08639079980955368
86853.67714650086,86853.67714650086,0.15859615277258693,0.0852455170837364
86853.68214650087,86853.68214650087,0.15910130973793787,0.08409670875123593
86853.68714650087,86853.68714650087,0.15959555232888423,0.08294448905659298
86853.69214650088,86853.69214650088,0.16007872867694417,0.0817889436555595
86853.69714650088,86853.69714650088,0.1605510077818049,0.08063025190559568
86853.70214650089,86853.70214650089,0.16101225821221696,0.07946850406155329
86853.70714650089,86853.70714650089,0.16146226824642015,0.07830377266674804
86853.7121465009,86853.7121465009,0.1619013447716539,0.07713626473980893
86853.7171465009,86853.7171465009,0.16232899001761458,0.07596598459285586
86853.7221465009,86853.7221465009,0.19279596609652372,0.07479316575680832
86853.72714650091,86853.72714650091,0.16315086083899802,0.0736178269913399
86853.73214650092,86853.73214650092,0.16354485415471265,0.3071204732218559
86853.73714650092,86853.73714650092,0.2139869978133761,0.07126020468046948
86853.74214650092,86853.74214650092,0.16429863215245613,0.07007815232368526
86853.74714650093,86853.74714650093,0.16465828176353764,0.06889406528959248
86853.75214650093,86853.75214650093,0.165006588611956,0.06770811064816355
86853.75714650094,86853.75714650094,0.1653435242057735,0.06652040342873106
86853.76214650094,86853.76214650094,0.16566866829506885,0.06533100718564161
86853.76714650095,86853.76714650095,0.1659823984637156,0.06414009920877918
86853.77214650095,86853.77214650095,0.16628445230224131,0.06294776774012126
86853.77714650096,86853.77714650096,0.22785338980931918,0.06175415755070369
86853.78214650096,86853.78214650096,0.16685378629304806,0.06055935560274344
86853.78714650097,86853.78714650097,0.1671210120328533,0.05936351112228626
86853.79214650097,86853.79214650097,0.1673762818393581,0.2718523165054828
86853.79714650098,86853.79714650098,0.16762010932044163,0.05696911533764744
86853.80214650098,86853.80214650098,0.167851981347554,0.0557708100370587
86853.80714650099,86853.80714650099,0.16807202062815205,0.05457192676451337
86853.81214650099,86853.81214650099,0.16828030247777082,0.05337258962013713
86853.817146501,86853.817146501,0.16847680343925533,0.052172916872981125
86853.822146501,86853.822146501,0.16866162348404287,0.05097302836101573
86853.827146501,86853.827146501,0.16883425822808262,0.050226960207793096
86853.83214650101,86853.83214650101,0.16899518948277473,0.051426925427953164
86853.83714650101,86853.83714650101,0.1691442878779047,0.05262674985414012
86853.84214650102,86853.84214650102,0.1692811997123243,0.053826304925030814
86853.84714650102,86853.84714650102,0.16940653694546526,0.05502548860947892
86853.85214650103,86853.85214650103,0.16951980223258428,0.05622416641859817
86853.85714650103,86853.85714650103,0.16962091788948502,0.05742221040209876
86853.86214650104,86853.86214650104,0.16971034555650674,0.058619529090078205
86853.86714650104,86853.86714650104,0.16978764131297347,0.05981597489730066
86853.87214650105,86853.87214650105,0.1698529974530477,0.0610114420373088
86853.87714650105,86853.87714650105,0.16990638795404875,0.062205809981100875
86853.88214650106,86853.88214650106,0.16994777526977806,0.06339895625686602
86853.88714650106,86853.88714650106,0.16997717251633362,0.06459076338993655
86853.89214650106,86853.89214650106,0.16999443905002917,0.0657810941542571
86853.89714650107,86853.89714650107,0.16999986247796273,0.06696986664111239
86853.90214650107,86853.90214650107,0.16999330046543373,0.06815694487656773
86853.90714650108,86853.90714650108,0.1699746753708156,0.06934219822643403
86853.91214650108,86853.91214650108,0.16994403002623015,0.07052551304881075
86853.91714650109,86853.91714650109,0.3237317730850941,0.07170678388081364
86853.92214650109,86853.92214650109,0.16984684363506924,0.14952938994164713
86853.9271465011,86853.9271465011,0.1697802541032197,0.0740626875477841
86853.9321465011,86853.9321465011,0.1697017427867506,0.07523709931838932
86853.9371465011,86853.9371465011,0.16961118160486705,0.14760848203960253
86853.94214650111,86853.94214650111,0.16950864546801808,0.07757819767601566
86853.94714650112,86853.94714650112,0.1693942634405729,0.07874469087104595
86853.95214650112,86853.95214650112,0.8173626815657569,0.07990830785072199
86853.95714650112,86853.95714650112,0.1691296910915293,0.08106893997987287
86853.96214650113,86853.96214650113,0.16897940530792085,0.08222643045318373
86853.96714650113,86853.96714650113,0.16881734876800128,0.08338073255689914
86853.97214650114,86853.97214650114,0.1686432501455634,0.08453165115144143
86853.97714650114,86853.97714650114,0.16845746851945775,0.08567916896628054
86853.98214650115,86853.98214650115,0.34941780547048373,0.08682307429241327
86853.98714650115,86853.98714650115,0.16805023133719924,0.1605175491093041
86853.99214650116,86853.99214650116,0.16782885446885373,0.08909977612524207
86853.99714650116,86853.99714650116,0.16759568671595243,0.09023229781243669
86854.00214650117,86854.00214650117,0.167350920741869,0.09136085189350768
86854.00714650117,86854.00714650117,0.16709427670014732,0.28089456128607737
86854.01214650118,86854.01214650118,0.1668258915839939,0.5068262279534453
86854.01714650118,86854.01714650118,0.16654595348251758,0.09472112348054049
86854.02214650119,86854.02214650119,0.16625428888518082,0.09583241974351454
86854.02714650119,86854.02714650119,0.1659509571485311,0.09693911587723902
86854.0321465012,86854.0321465012,0.793563509438233,0.09804118413516962
86854.0371465012,86854.0371465012,0.23421960000799524,0.0991383521672179
86854.0421465012,86854.0421465012,0.1649715474159569,0.10023060699331673
86854.04714650121,86854.04714650121,0.16462219503971234,0.10131793890419503
86854.05214650121,86854.05214650121,0.1642612992284245,0.10240010411013882
86854.05714650122,86854.05714650122,0.4179525500963624,0.10347698406557838
86854.06214650122,86854.06214650122,0.1635051330976704,0.10454854552019481
86854.06714650123,86854.06714650123,0.1631100676253492,0.10561466727444255
86854.07214650123,86854.07214650123,0.16270367745147826,0.10667522123083568
86854.07714650124,86854.07714650124,0.16228596981344973,0.10773008413177834
86854.08214650124,86854.08214650124,0.16185712161220056,0.10877921950308787
86854.08714650125,86854.08714650125,0.16141700549320967,0.1373441287012386
86854.09214650125,86854.09214650125,0.16096558006918266,0.11085957440815347
86854.09714650126,86854.09714650126,0.1605034741146321,0.11189085680711362
86854.10214650126,86854.10214650126,0.16002995712253992,0.1129157493468103
86854.10714650126,86854.10714650126,0.15954568989318932,0.11393449469438885
86854.11214650127,86854.11214650127,0.15905038075675662,0.7657017058889749
86854.11714650127,86854.11714650127,0.1585440927878137,0.11595256111428788
86854.12214650128,86854.12214650128,0.15802699643260043,0.11695175724413388
86854.12714650128,86854.12714650128,0.15749903306634191,0.11794421747760224
86854.13214650129,86854.13214650129,0.15696041669393093,0.11892994433927212
86854.13714650129,86854.13714650129,0.15641110032042538,0.11990877634196129
86854.1421465013,86854.1421465013,0.15585095244515645,0.12088049090149271
86854.1471465013,86854.1471465013,0.15528049174701436,0.12184529896908383
86854.1521465013,86854.1521465013,0.15469944360854648,0.12280288399624116
86854.15714650131,86854.15714650131,0.1541077308513246,0.12375305220333341
86854.16214650132,86854.16214650132,0.15350589679982474,0.12469605056648561
86854.16714650132,86854.16714650132,0.15289347099083084,0.47716397623937157
86854.17214650133,86854.17214650133,0.15227090655589573,0.126559308154751
86854.17714650133,86854.17714650133,0.15163805271039468,0.12747950856115586
86854.18214650133,86854.18214650133,0.15099500934210205,0.12839194104295398
86854.18714650134,86854.18714650134,0.15034198059054021,0.12929662351905355
86854.19214650134,86854.19214650134,0.1496787301113707,0.13019322780242984
86854.19714650135,86854.19714650135,0.5270295357802268,0.13108191362905494
86854.20214650135,86854.20214650135,0.5117985252506336,0.1319624177210409
86854.20714650136,86854.20714650136,0.1476298036608597,0.13283485889598154
86854.21214650136,86854.21214650136,0.26521548937225503,0.13369896130907138
86854.21714650137,86854.21714650137,0.1462148944575017,0.13455465193040606
86854.22214650137,86854.22214650137,0.14549293122150048,0.1354018717538004
86854.22714650138,86854.22714650138,0.14476152116972005,0.13624064308416245
86854.23214650138,86854.23214650138,0.1440205566364342,0.13707072000179657
86854.23714650139,86854.23714650139,0.14327027872265244,0.13789217270640497
86854.24214650139,86854.24214650139,0.14251051718372043,0.13870468845014355
86854.2471465014,86854.2471465014,0.3747085879557952,0.13950839271262244
86854.2521465014,86854.2521465014,0.14096354558110452,0.2822838241822242
86854.2571465014,86854.2571465014,0.5039318413916505,0.141088956047611
86854.26214650141,86854.26214650141,0.13938012786898676,0.14186562361358218
86854.26714650141,86854.26714650141,0.5233398644433176,0.14263305211962285
86854.27214650142,86854.27214650142,0.13776088916588966,0.14339118139782364
86854.27714650142,86854.27714650142,0.13693819138910407,0.14414012438401833
86854.28214650143,86854.28214650143,0.13610663100692544,0.1448794707804959
86854.28714650143,86854.28714650143,0.13526640636220588,0.14560926630243345
86854.29214650144,86854.29214650144,0.134417947971373,0.14632982944345316
86854.29714650144,86854.29714650144,0.1615478791461123,0.14704064406039583
86854.30214650145,86854.30214650145,0.1326954868451547,0.14774164516673252
86854.30714650145,86854.30714650145,0.13182169616719847,0.14843279209990914
86854.31214650146,86854.31214650146,0.1309399489441277,0.14911436740947237
86854.31714650146,86854.31714650146,0.13005000626120797,0.16049645703393634
86854.32214650146,86854.32214650146,0.17489542174190909,0.15044736193095506
86854.32714650147,86854.32714650147,0.4040562958850634,0.15109889250318725
86854.33214650147,86854.33214650147,0.12733237157941904,0.15174022822502525
86854.33714650148,86854.33714650148,0.1264110146490891,0.15237154945197492
86854.34214650148,86854.34214650148,0.12548190483401345,0.15299248503902424
86854.34714650149,86854.34714650149,0.12454531407604989,0.15360321331851404
86854.3521465015,86854.3521465015,0.12360114422960576,0.15420340686533757
86854.3571465015,86854.3571465015,0.122649714786346,0.1547933205061838
86854.3621465015,86854.3621465015,0.12169102214785785,0.1553727581634386
86854.3671465015,86854.3671465015,0.12072509625545862,0.1559415633919716
86854.37214650151,86854.37214650151,0.11975215459741397,0.1564998582556057
86854.37714650152,86854.37714650152,0.11877232301333152,0.15704763603977492
86854.38214650152,86854.38214650152,0.11778548762901739,0.15758451401879753
86854.38714650153,86854.38714650153,0.11679189300477003,0.1581106627221001
86854.39214650153,86854.39214650153,0.1157916758336655,0.158626092843217
86854.39714650153,86854.39714650153,0.11478476624414394,0.15913047253122903
86854.40214650154,86854.40214650154,0.11377142980000234,0.15962402311732377
86854.40714650154,86854.40714650154,0.11275180313463909,0.1601067620565835
86854.41214650155,86854.41214650155,0.1117257892144186,0.16057829471105867
86854.41714650155,86854.41714650155,0.11069364050718249,0.16103883534137864
86854.42214650156,86854.42214650156,0.10965544568447953,0.16148831481294032
86854.42714650156,86854.42714650156,0.18155270753681785,0.16192666229382455
86854.43214650157,86854.43214650157,0.10756124574251616,0.16235375184525688
86854.43714650157,86854.43714650157,0.1065054787386982,0.18563302056183595
86854.44214650158,86854.44214650158,0.10544397439947148,0.16317415413284428
86854.44714650158,86854.44714650158,0.1043769537800522,0.1635673652290864
86854.45214650159,86854.45214650159,0.1033045725766249,0.1639493811964385
86854.45714650159,86854.45714650159,0.10222686913876196,0.16432002434727905
86854.4621465016,86854.4621465016,0.10114383243860782,0.16467899319229196
86854.4671465016,86854.4671465016,0.10005574724318823,0.16502663966259454
86854.4721465016,86854.4721465016,0.09896269036258688,0.1653628637764323
86854.47714650161,86854.47714650161,0.09786465591294838,0.16568736057667408
86854.48214650161,86854.48214650161,0.09676190540618686,0.1660004578278811
86854.48714650162,86854.48714650162,0.09565441945440174,0.3017637897457052
86854.49214650162,86854.49214650162,0.09454239281226032,0.166591590023064
86854.49714650163,86854.49714650163,0.10017503451868603,0.16686984298072066
86854.50214650163,86854.50214650163,0.09230505705029195,0.16713605940717932
86854.50714650164,86854.50714650164,0.09118007981064392,0.16739099466385995
86854.51214650164,86854.51214650164,0.09005087883290724,0.16763389341380444
86854.51714650165,86854.51714650165,0.08891772147286506,0.16786517076936378
86854.52214650165,86854.52214650165,0.08778066996311182,0.1680846567993533
86854.52714650166,86854.52714650166,0.0866398114674978,0.1682922436428184
86854.53214650166,86854.53214650166,0.08549528844221571,0.16848799659886285
86854.53714650167,86854.53714650167,0.08434723843325556,0.16867197507157525
86854.54214650167,86854.54214650167,0.08319576169138954,0.16884411633379443
86854.54714650167,86854.54714650167,0.08204095690207394,0.21902372877497198
86854.55214650168,86854.55214650168,0.08088293810994344,0.16915263749824744
86854.55714650168,86854.55714650168,0.07972183270634377,0.16928902045416203
86854.56214650169,86854.56214650169,0.07855773659082689,0.1694133962842722
86854.5671465017,86854.5671465017,0.07739081486511332,0.169525955190701
86854.5721465017,86854.5721465017,0.07622116685187948,0.16962662302821935
86854.5771465017,86854.5771465017,0.07504884750478549,0.16971510272880352
86854.5821465017,86854.5821465017,0.07387400095810977,0.16979148600139038
86854.58714650171,86854.58714650171,0.07269687007193427,0.16985640869856133
86854.59214650172,86854.59214650172,0.40206629616563916,0.16990906950922452
86854.59714650172,86854.59714650172,0.4460948528080546,0.16994987226091895
86854.60214650173,86854.60214650173,0.06915217395678888,0.16997845766020764
86854.60714650173,86854.60714650173,0.06796663301263565,0.16999523448303597
86854.61214650173,86854.61214650173,0.06677926150999823,0.5086105355548646
86854.61714650174,86854.61714650174,0.06559024446161879,0.16999255890976323
86854.62214650174,86854.62214650174,0.06439963683404053,0.1699730883924661
86854.62714650175,86854.62714650175,0.0632076299778459,0.19909640383704405
86854.63214650175,86854.63214650175,0.06201427176177118,0.16989857158969732
86854.63714650176,86854.63714650176,0.06081971418131775,0.16984319588836655
86854.64214650176,86854.64214650176,0.05962408736648876,0.1697759752124592
86854.64714650177,86854.64714650177,0.05842748899720244,0.16969666327925362
86854.65214650177,86854.65214650177,0.171460633414917,0.16960557147530736
86854.65714650178,86854.65714650178,0.05603189907825513,0.16950237297049528
86854.66214650178,86854.66214650178,0.05483313361437567,0.16938720005748548
86854.66714650179,86854.66714650179,0.05363388973357075,0.1692602209341753
86854.67214650179,86854.67214650179,0.052434276420835764,0.1691211166459039
86854.6771465018,86854.6771465018,0.05123442317034737,0.1689702473638246
86854.6821465018,86854.6821465018,0.0501692597848271,0.16880738856988844
86854.6871465018,86854.6871465018,0.05116553458509814,0.1686326860343027
86854.69214650181,86854.69214650181,0.052365399758214554,0.16844620272027397
86854.69714650181,86854.69714650181,0.05356502639989735,0.16824776822318227
86854.70214650182,86854.70214650182,0.054764300693453054,0.16803762334546565
86854.70714650182,86854.70714650182,0.055963090295157045,0.39288986068027654
86854.71214650183,86854.71214650183,0.05716129287984193,0.16758175126125183
86854.71714650183,86854.71714650183,0.05835877459458433,0.751817526186217
86854.72214650184,86854.72214650184,0.059555416449841254,0.16707881498182703
86854.72714650184,86854.72714650184,0.06075110163140701,0.1668097500358583
86854.73214650185,86854.73214650185,0.06194569995487655,0.16652890273240667
86854.73714650185,86854.73714650185,0.36069627379952185,0.16623675401651095
86854.74214650186,86854.74214650186,0.06433124900812956,0.16593280719004103
86854.74714650186,86854.74714650186,0.0655219380172347,0.16561736448437936
86854.75214650187,86854.75214650187,0.36624659717382035,0.1652901539384299
86854.75714650187,86854.75714650187,0.06789850678500858,0.16495156096170127
86854.76214650187,86854.76214650187,0.06908417280417564,0.16460144575829422
86854.76714650188,86854.76714650188,0.07026791088431929,0.16423975701373827
86854.77214650188,86854.77214650188,0.07144962666895274,0.1638666773335217
86854.77714650189,86854.77714650189,0.0726292144441086,0.16348230208321698
86854.7821465019,86854.7821465019,0.07380653975396198,0.16308657671376856
86854.7871465019,86854.7871465019,0.1560255988307473,0.1626795505713961
86854.7921465019,86854.7921465019,0.07615390828625428,0.16226113373279927
86854.7971465019,86854.7971465019,0.07732373229264933,0.16183157140220814
86854.80214650191,86854.80214650191,0.07849083496464473,0.16139086920267195
86854.80714650192,86854.80714650192,0.07965508859283957,0.16093902451275724
86854.81214650192,86854.81214650192,0.08081634829537213,0.1604759799203102
86854.81714650193,86854.81714650193,0.08197455275581025,0.16000198417840059
86854.82214650193,86854.82214650193,0.08312953245943629,0.15951689533791197
86854.82714650194,86854.82714650194,0.0842812075878372,0.1590208857908554
86854.83214650194,86854.83214650194,0.08542943187989462,0.1585139069938194
86854.83714650194,86854.83714650194,0.08657423007767838,0.1579964294522809
86854.84214650195,86854.84214650195,0.08771525430057554,0.1574678019303882
86854.84714650195,86854.84714650195,0.0888525284795728,0.15692849307509793
86854.85214650196,86854.85214650196,0.0899859592129422,0.15637860482977808
86854.85714650196,86854.85714650196,0.09111536979112131,0.18635236780908615
86854.86214650197,86854.86214650197,0.09224065521249931,0.15524681364977935
86854.86714650197,86854.86714650197,0.09336172731741665,0.15466511144912976
86854.87214650198,86854.87214650198,0.09447839669696931,0.15407278628992635
86854.87714650198,86854.87714650198,0.095590688112725,0.15347022073476604
86854.88214650199,86854.88214650199,0.09669842188768357,0.15285730997418256
86854.88714650199,86854.88714650199,0.0978014900119201,0.15223412110336368
86854.892146502,86854.892146502,0.09889979947555044,0.15160075177199467
86854.897146502,86854.897146502,0.0999931496247206,0.15095707807409692
86854.902146502,86854.902146502,0.10108153590099107,0.15030338180515337
86854.90714650201,86854.90714650201,0.1021648350007492,0.14963969510144381
86854.91214650201,86854.91214650201,0.10324284963285507,0.14896591572575024
86854.91714650202,86854.91714650202,0.10431555991897351,0.14828227992394916
86854.92214650202,86854.92214650202,0.10538292959147681,0.14758897902803278
86854.92714650203,86854.92714650203,0.10644465869940017,0.42589637414466497
86854.93214650203,86854.93214650203,0.1621003059470867,0.14617294406440137
86854.93714650204,86854.93714650204,0.10855119694922645,0.1454504629878452
86854.94214650204,86854.94214650204,0.10959566143148004,0.1447183510348492
86854.94714650205,86854.94714650205,0.534161444900048,0.14397684480453238
86854.95214650205,86854.95214650205,0.11166674225533871,0.2585326140877907
86854.95714650206,86854.95714650206,0.11269307151913216,0.1424657835929104
86854.96214650206,86854.96214650206,0.1137131061485629,0.1416962830768046
86854.96714650207,86854.96714650207,0.11472676953940997,0.14091761488698626
86854.97214650207,86854.97214650207,0.11573399039436408,0.14012989748515026
86854.97714650207,86854.97714650207,0.8150307625179362,0.13933321146721445
86854.98214650208,86854.98214650208,0.11772860884971233,0.1385274983286383
86854.98714650208,86854.98714650208,0.11871578016404641,0.13771294242128043
86854.99214650209,86854.99214650209,0.11969616500339043,0.13688972275552844
86854.9971465021,86854.9971465021,0.12066947204676852,0.13605767864914686
86855.0021465021,86855.0021465021,0.1216357398032354,0.13521706431744854
86855.0071465021,86855.0071465021,0.12259489661919573,0.1343679905446968
86855.01214650211,86855.01214650211,0.12354672011426644,0.13351039411516794
86855.01714650211,86855.01714650211,0.12449123807192007,0.1326445030977868
86855.02214650212,86855.02214650212,0.12542832891970823,0.13177037107277845
86855.02714650212,86855.02714650212,0.12635785912569858,0.13088804173743313
86855.03214650213,86855.03214650213,0.1272796831501127,0.12999754985977133
86855.03714650213,86855.03714650213,0.1281939101056574,0.1290991933841051
86855.04214650214,86855.04214650214,0.12910019017499397,0.1281927975112202
86855.04714650214,86855.04714650214,0.1299985534911612,0.1272785781395244
86855.05214650214,86855.05214650214,0.13088906485113622,0.12635677324603772
86855.05714650215,86855.05714650215,0.13177137112895315,0.1254272218789798
86855.06214650215,86855.06214650215,0.13264556846734296,0.124490190182738
86855.06714650216,86855.06714650216,0.13351144905420692,0.12354566206849266
86855.07214650216,86855.07214650216,0.13436894269689437,0.5026215805802807
86855.07714650217,86855.07714650217,0.1352180301821509,0.2643598628445034
86855.08214650217,86855.08214650217,0.1360587094778676,0.1206683900657086
86855.08714650218,86855.08714650218,0.13689063602354315,0.6265872092626666
86855.09214650218,86855.09214650218,0.13771389941607046,0.11871463789409215
86855.09714650219,86855.09714650219,0.597982293598774,0.1177274236447898
86855.10214650219,86855.10214650219,0.13933415862314796,0.35962910159215017
86855.1071465022,86855.1071465022,0.14013087088866932,0.11573285899202373
86855.1121465022,86855.1121465022,0.14091857709255157,0.11472562931786892
86855.1171465022,86855.1171465022,0.14169718680753063,0.11371192421084804
86855.12214650221,86855.12214650221,0.8514625486102532,0.11269187914321184
86855.12714650221,86855.12714650221,0.1432268781157902,0.11166554249468787
86855.13214650222,86855.13214650222,0.14397774252763937,0.11063302712647285
86855.13714650222,86855.13714650222,0.1447192416679714,0.10959446969189679
86855.14214650223,86855.14214650223,0.1454512846694946,0.10854996232160148
86855.14714650223,86855.14714650223,0.14617377282010752,0.10749959327424348
86855.15214650224,86855.15214650224,0.14688654367612416,0.10644341554964944
86855.15714650224,86855.15714650224,0.1475898185541862,0.10538170548914969
86855.16214650225,86855.16214650225,0.148283131584488,0.10431434185059647
86855.16714650225,86855.16714650225,0.14896680570004384,0.10324165159366563
86855.17214650226,86855.17214650226,0.1496403825858148,0.10216352936717438
86855.17714650226,86855.17714650226,0.15030418682732374,0.10108029137788342
86855.18214650227,86855.18214650227,0.1509578008648986,0.09999186374268287
86855.18714650227,86855.18714650227,0.15160135093755028,0.09889845443536065
86855.19214650228,86855.19214650228,0.15223478316371142,0.09780017610519495
86855.19714650228,86855.19714650228,0.15285813035239787,0.09669718080404037
86855.20214650228,86855.20214650228,0.15347077566525089,0.09558932837889458
86855.20714650229,86855.20714650229,0.15407356586179205,0.09447713523445206
86855.2121465023,86855.2121465023,0.15466577599807335,0.16158516040428866
86855.2171465023,86855.2171465023,0.15524737045574152,0.09223930186698072
86855.2221465023,86855.2221465023,0.38868248326129545,0.09111402069161358
86855.22714650231,86855.22714650231,0.15637925186397594,0.3311821503493869
86855.23214650231,86855.23214650231,0.15692910209842167,0.08885119774448572
86855.23714650232,86855.23714650232,0.15746840993966482,0.0877139233885576
86855.24214650232,86855.24214650232,0.15799702326145346,0.08657289447239062
86855.24714650233,86855.24714650233,0.3089545215426738,0.08542814440591383
86855.25214650233,86855.25214650233,0.15902155787584935,0.08427989651304116
86855.25714650234,86855.25714650234,0.15951753701807858,0.08312821114176237
86855.26214650234,86855.26214650234,0.16000255567843844,0.08197321021586704
86855.26714650234,86855.26714650234,0.1604765607707588,0.08081500813070104
86855.27214650235,86855.27214650235,0.539515424420235,0.07965372130382846
86855.27714650235,86855.27714650235,0.16139136707457136,0.07848947244604801
86855.28214650236,86855.28214650236,0.16183183541961302,0.07732231315395602
86855.28714650236,86855.28714650236,0.16226169047153038,0.07615255962235226
86855.29214650237,86855.29214650237,0.7847744646028391,0.07498012310037529
86855.29714650237,86855.29714650237,0.16308700282639074,0.07380516191935618
86855.30214650238,86855.30214650238,0.16348278427283355,0.07262784822412817
86855.30714650238,86855.30714650238,0.1638671422151403,0.07144825672124461
86855.31214650239,86855.31214650239,0.16424019114722585,0.07026653523558753
86855.31714650239,86855.31714650239,0.16460174190581164,0.06908277408305145
86855.3221465024,86855.3221465024,0.1649518444597226,0.4358182614024845
86855.3271465024,86855.3271465024,0.16529050690526104,0.06670965916118315
86855.3321465024,86855.3321465024,0.1656174037052554,0.39043401103454434
86855.33714650241,86855.33714650241,0.16593321934108496,0.06432986836690581
86855.34214650241,86855.34214650241,0.16623724615016816,0.06313776806610646
86855.34714650242,86855.34714650242,0.16652945772389238,0.061944332667077696
86855.35214650242,86855.35214650242,0.16681018523601987,0.06074972081283694
86855.35714650243,86855.35714650243,0.1670791829106745,0.05955402901704045
86855.36214650243,86855.36214650243,0.1673364335590609,0.1677463219222168
86855.36714650244,86855.36714650244,0.16758182392155938,0.05715988574870371
86855.37214650244,86855.37214650244,0.1678157969498942,0.05596169757884507
86855.37714650245,86855.37714650245,0.16803782887464017,0.054762902981354264
86855.38214650245,86855.38214650245,0.1682479719671708,0.05356362919109457
86855.38714650246,86855.38714650246,0.16844642314909533,0.3784407730476624
86855.39214650246,86855.39214650246,0.2522803315235133,0.05116413854524306
86855.39714650247,86855.39714650247,0.6325603884911579,0.05017446418506153
86855.40214650247,86855.40214650247,0.16897031439804194,0.051235818870600275
86855.40714650248,86855.40714650248,0.1691212721522985,0.052435672803406094
86855.41214650248,86855.41214650248,0.16926033818215333,0.05363528479834746
86855.41714650248,86855.41714650248,0.16938737287533184,0.054834530722524276
86855.42214650249,86855.42214650249,0.1695024653998721,0.17579093952965516
86855.4271465025,86855.4271465025,0.1696057072559596,0.12525709749909036
86855.4321465025,86855.4321465025,0.16969684976803392,0.05842888876462078
86855.4371465025,86855.4371465025,0.16977617649228718,0.059625489081678654
86855.44214650251,86855.44214650251,0.47714434927403654,0.06082111637802596
86855.44714650251,86855.44714650251,0.6382759264101912,0.062015659800063815
86855.45214650252,86855.45214650252,0.16994194871141552,0.06320901218317214
86855.45714650252,86855.45714650252,0.16997330551228051,0.06440104619227931
86855.46214650253,86855.46214650253,0.16999260087133086,0.06559163290998188
86855.46714650253,86855.46714650253,0.1699998851372628,0.06678065877203568
86855.47214650254,86855.47214650254,0.16999509510257121,0.06796799519288847
86855.47714650254,86855.47714650254,0.169978462973877,0.06915355803277957
86855.48214650255,86855.48214650255,0.16994977127859012,0.07033719651129637
86855.48714650255,86855.48714650255,0.16990901878626719,0.07151878953750063
86855.49214650255,86855.49214650255,0.16985643411450968,0.07269825948714127
86855.49714650256,86855.49714650256,0.16979170479181302,0.07387542981173699
86855.50214650256,86855.50214650256,0.16971501750321044,0.32337992027784773
86855.50714650257,86855.50714650257,0.16962650212652441,0.07622252762110283
86855.51214650257,86855.51214650257,0.169525813284359,0.07739217080510981
86855.51714650258,86855.51714650258,0.16941314129374685,0.07855906521835249
86855.52214650258,86855.52214650258,0.34695321808614465,0.40960892473184796
86855.52714650259,86855.52714650259,0.1691524583194979,0.0808842844736632
86855.53214650259,86855.53214650259,0.8587530362195093,0.08204229742005412
86855.5371465026,86855.5371465026,0.16884390222048898,0.5056937462312676
86855.5421465026,86855.5421465026,0.16867182320262109,0.08434859302004828
86855.5471465026,86855.5471465026,0.168487809358916,0.08549663288356181
86855.55214650261,86855.55214650261,0.16829199957223798,0.08664113863721952
86855.55714650262,86855.55714650262,0.1680844049652181,0.08778199478433123
86855.56214650262,86855.56214650262,0.16786486723379543,0.08891902928391028
86855.56714650262,86855.56714650262,0.4093104001333437,0.0900521537798912
86855.57214650263,86855.57214650263,0.16739061348078874,0.09118135972819152
86855.57714650263,86855.57714650263,0.16713597296565433,0.09230644286966815
86855.58214650264,86855.58214650264,0.16686943902212342,0.09342723059475554
86855.58714650264,86855.58714650264,0.4515971595370295,0.0945436869068297
86855.59214650265,86855.59214650265,0.24046424647724615,0.09565572166460301
86855.59714650265,86855.59714650265,0.16600006692463795,0.2547358682510937
86855.60214650266,86855.60214650266,0.1656871073078784,0.09786598571400353
86855.60714650266,86855.60714650266,0.16536246048036957,0.0989639576732146
86855.61214650267,86855.61214650267,0.1650262548535703,0.10005702262320067
86855.61714650267,86855.61714650267,0.16467854362747197,0.10114507893657794
86855.62214650268,86855.62214650268,0.16431946315061663,0.10222806449425317
86855.62714650268,86855.62714650268,0.16394902514871143,0.10330586253809318
86855.63214650268,86855.63214650268,0.16356703927786354,0.10437825908942713
86855.63714650269,86855.63714650269,0.16317378438339833,0.10544525955535403
86855.6421465027,86855.6421465027,0.16276917429413018,0.17418170646340814
86855.6471465027,86855.6471465027,0.16235303163951392,0.1075623534215806
86855.6521465027,86855.6521465027,0.1619260990209839,0.10861248135067554
86855.65714650271,86855.65714650271,0.1614878984270953,0.10965671149492638
86855.66214650271,86855.66214650271,0.1610383809567731,0.11069488674065171
86855.66714650272,86855.66714650272,0.3004147161978855,0.11172701568882727
86855.67214650272,86855.67214650272,0.3972977815860111,0.11275296090774523
86855.67714650273,86855.67714650273,0.15962352049594183,0.11377265145164565
86855.68214650273,86855.68214650273,0.2133802802851974,0.11478597270587149
86855.68714650274,86855.68714650274,0.15862544841692178,0.11579281323348978
86855.69214650274,86855.69214650274,0.1581100097042127,0.116793024636703
86855.69714650275,86855.69714650275,0.1575837678384444,0.11778656022458318
86855.70214650275,86855.70214650275,0.15704660493014802,0.11877321085366939
86855.70714650275,86855.70714650275,0.15649924079587343,0.1197533085986482
86855.71214650276,86855.71214650276,0.15594097605418936,0.12072627076322409
86855.71714650276,86855.71714650276,0.15537206138884818,0.12169212307811694
86855.72214650277,86855.72214650277,0.15479272018022808,0.12265088218015566
86855.72714650277,86855.72714650277,0.15420273484426023,0.12360226209381214
86855.73214650278,86855.73214650278,0.15360238879955915,0.12454632268061483
86855.73714650278,86855.73714650278,0.15299181566786757,0.12548302560735278
86855.74214650279,86855.74214650279,0.1523707735123728,0.1264120566047073
86855.74714650279,86855.74714650279,0.4020763225779735,0.8314226757835617
86855.7521465028,86855.7521465028,0.5090464157616126,0.12824713786796063
86855.7571465028,86855.7571465028,0.15044664857952164,0.129153059566909
86855.7621465028,86855.7621465028,0.14978508134953097,0.3638308374847359
86855.76714650281,86855.76714650281,0.3616227773735122,0.1309409595237101
86855.77214650282,86855.77214650282,0.14843214289713305,0.13182284260083824
86855.77714650282,86855.77714650282,0.147740780016014,0.13269645271694017
86855.78214650282,86855.78214650282,0.14703971921903725,0.13356185655902675
86855.78714650283,86855.78714650283,0.14632902476421694,0.13441896572984638
86855.79214650283,86855.79214650283,0.14560846753977535,0.13526742996073135
86855.79714650284,86855.79714650284,0.14487866016755283,0.1361076444215982
86855.80214650284,86855.80214650284,0.144139209542425,0.1369391094114272
86855.80714650285,86855.80714650285,0.17089393308856765,0.16619115185132483
86855.81214650285,86855.81214650285,0.14263211262243633,0.13857584696624534
86855.81714650286,86855.81714650286,0.14186473132866956,0.13938106631056035
86855.82214650286,86855.82214650286,0.14108798039743395,0.1401771687435457
86855.82714650287,86855.82714650287,0.14030213658780585,0.14096426598970693
86855.83214650287,86855.83214650287,0.13950747894694,0.14174248543389867
86855.83714650288,86855.83714650288,0.138703788155146,0.14251144914529187
86855.84214650288,86855.84214650288,0.1378911705172974,0.1432711034636844
86855.84714650289,86855.84714650289,0.1370697506935797,0.14402141593390427
86855.85214650289,86855.85214650289,0.13623962827461458,0.1447623304054077
86855.8571465029,86855.8571465029,0.13540097314467336,0.14549386974201156
86855.8621465029,86855.8621465029,0.1345536498103656,0.14621571673994094
86855.8671465029,86855.8671465029,0.1336979586521093,0.14692804136570833
86855.87214650291,86855.87214650291,0.1328338646974989,0.14763063522933018
86855.87714650291,86855.87714650291,0.13196142945209727,0.22412444192477854
86855.88214650292,86855.88214650292,0.131080897697146,0.5182159251548923
86855.88714650292,86855.88714650292,0.1301922826963114,0.14967962477505586
86855.89214650293,86855.89214650293,0.12929553632237778,0.15034269759417107
86855.89714650293,86855.89714650293,0.12839089321353353,0.15099577646956297
86855.90214650294,86855.90214650294,0.12747843022556155,0.1516387799185908
86855.90714650294,86855.90714650294,0.126558255878864,0.1522716686136983
86855.91214650295,86855.91214650295,0.125630379451727,0.15289426891860153
86855.91714650295,86855.91714650295,0.12469489945887847,0.15350652345374483
86855.92214650296,86855.92214650296,0.1237519800486285,0.15410846739533576
86855.92714650296,86855.92714650296,0.3179516282406832,0.15470014029784013
86855.93214650296,86855.93214650296,0.12184421593081574,0.15528121473441647
86855.93714650297,86855.93714650297,0.12087944436988589,0.155851731080671
86855.94214650297,86855.94214650297,0.1199074808541853,0.15641150210846796
86855.94714650298,86855.94714650298,0.11892878149610504,0.1569610199837242
86855.95214650298,86855.95214650298,0.11794308877042438,0.15749968982460139
86855.95714650299,86855.95714650299,0.11695059294805003,0.15802759648546466
86855.96214650299,86855.96214650299,0.1159514063389716,0.1585447083993865
86855.967146503,86855.967146503,0.1149456000972966,0.15905092581932087
86855.972146503,86855.972146503,0.1139333406684199,0.1595463083534085
86855.977146503,86855.977146503,0.11291458276210921,0.16003055473858901
86855.98214650301,86855.98214650301,0.11188950907514406,0.160503749424034
86855.98714650302,86855.98714650302,0.11085843300725953,0.16096622638236419
86855.99214650302,86855.99214650302,0.1098212142119755,0.3330582980828861
86855.99714650302,86855.99714650302,0.10877801995981107,0.16185766233843996
86856.00214650303,86856.00214650303,0.10772885691976793,0.16228645766633046
86856.00714650303,86856.00714650303,0.10667400729744907,0.16270419143742054
86856.01214650304,86856.01214650304,0.105613446468247,0.163110568917454
86856.01714650304,86856.01714650304,0.10454725952499726,0.16350549970486136
86856.02214650305,86856.02214650305,0.1034757516090463,0.16388935743042585
86856.02714650305,86856.02714650305,0.10239883928704455,0.16426170818496472
86856.03214650306,86856.03214650306,0.10131668554017972,0.6682071197297138
86856.03714650306,86856.03714650306,0.10022937824959366,0.1649720387417496
86856.04214650307,86856.04214650307,0.09913700452143424,0.165309846232279
86856.04714650307,86856.04714650307,0.0980398529643988,0.16563644203806746
86856.05214650308,86856.05214650308,0.0969378348403147,0.16595132834374582
86856.05714650308,86856.05714650308,0.09583113002746589,0.16625463818536454
86856.06214650309,86856.06214650309,0.09471980661247051,0.3978515291641044
86856.06714650309,86856.06714650309,0.09360402287863753,0.1668262008990839
86856.0721465031,86856.0721465031,0.09248390867176216,0.24831131038068688
86856.0771465031,86856.0771465031,0.09135950375298146,0.16735110844167655
86856.0821465031,86856.0821465031,0.09023101620284138,0.1675960659346791
86856.08714650311,86856.08714650311,0.0890984451451155,0.16782908752190037
86856.09214650311,86856.09214650311,0.08796195725878109,0.16805029938767976
86856.09714650312,86856.09714650312,0.08682173969081498,0.16825991324688327
86856.10214650312,86856.10214650312,0.08567782014766107,0.16845764171367603
86856.10714650313,86856.10714650313,0.08453034556401057,0.16864357036348313
86856.11214650313,86856.11214650313,0.08337938347030689,0.16881751836188283
86856.11714650314,86856.11714650314,0.08222509421929863,0.16897962154624968
86856.12214650314,86856.12214650314,0.30797421042313455,0.16912980639829076
86856.12714650315,86856.12714650315,0.0799069662430693,0.16926812987390003
86856.13214650315,86856.13214650315,0.07874332602003459,0.5125679010694333
86856.13714650316,86856.13714650316,0.07757686064271925,0.16950886943104507
86856.14214650316,86856.14214650316,0.5146792433338874,0.1696113598770109
86856.14714650316,86856.14714650316,0.07523572455462253,0.16970179810174715
86856.15214650317,86856.15214650317,0.4147856443786871,0.1697804199562734
86856.15714650317,86856.15714650317,0.07288450798129857,0.1698469062968727
86856.16214650318,86856.16214650318,0.07170541523417173,0.393152047422225
86856.16714650318,86856.16714650318,0.07052414968356206,0.1699441483666575
86856.17214650319,86856.17214650319,0.06934082004085033,0.16997470662379227
86856.17714650319,86856.17714650319,0.06815557333882101,0.16999337637707063
86856.1821465032,86856.1821465032,0.2880165204483418,0.16999985482075103
86856.1871465032,86856.1871465032,0.06577972522106187,0.1699945455692295
86856.1921465032,86856.1921465032,0.06458935950340386,0.1699770027698844
86856.19714650321,86856.19714650321,0.0633975603768145,0.16994766451857124
86856.20214650322,86856.20214650322,0.06220442326131162,0.16990636223926697
86856.20714650322,86856.20714650322,0.06101004145175611,0.16985282428614726
86856.21214650323,86856.21214650323,0.5715728283236344,0.1697875506782455
86856.21714650323,86856.21714650323,0.058618134370563006,0.16971022843534814
86856.22214650323,86856.22214650323,0.05742081930995583,0.16962085493650914
86856.22714650324,86856.22714650324,0.05622276703072426,0.16951959487740045
86856.23214650324,86856.23214650324,0.4371222242787566,0.1694062030544845
86856.23714650325,86856.23714650325,0.053824906103870584,0.16928096612398924
86856.24214650325,86856.24214650325,0.052625348468803894,0.16914390151565248
86856.24714650326,86856.24714650326,0.05142552958402236,0.1689950877271826
86856.25214650326,86856.25214650326,0.05022556359787563,0.620116631272652
86856.25714650327,86856.25714650327,0.06091636609652318,0.16866142805204803
86856.26214650327,86856.26214650327,0.05217431570635785,0.2383583856736533
86856.26714650328,86856.26714650328,0.053373990137044566,0.16828021575894725
86856.27214650328,86856.27214650328,0.05457332430046667,0.3140302352329739
86856.27714650329,86856.27714650329,0.05577220132556872,0.16785163818775548
86856.28214650329,86856.28214650329,0.05697049834914664,0.16761963646609462
86856.2871465033,86856.2871465033,0.058168110900695076,0.16737607692909445
86856.2921465033,86856.2921465033,0.05936490113430651,0.16712067535971994
86856.2971465033,86856.2971465033,0.0605607436239673,0.1668534294947994
86856.30214650331,86856.30214650331,0.06175554171842557,0.1665746350696514
86856.30714650331,86856.30714650331,0.06294916597668412,0.16628419209832143
86856.31214650332,86856.31214650332,0.06414147890116205,0.16598197777340234
86856.31714650332,86856.31714650332,0.0653324007998592,0.1656683580866228
86856.32214650333,86856.32214650333,0.06652176462119713,0.1653429827455903
86856.32714650333,86856.32714650333,0.06770950958510362,0.16500630231679014
86856.33214650334,86856.33214650334,0.06889545180734731,0.16465791187164622
86856.33714650334,86856.33714650334,0.07007951110292704,0.1642981016391938
86856.34214650335,86856.34214650335,0.0712615578514234,0.1639268405582629
86856.34714650335,86856.34714650335,0.07244150630488352,0.16354433401997168
86856.35214650336,86856.35214650336,0.0736192092827111,0.1631504563818372
86856.35714650336,86856.35714650336,0.07479451522305287,0.47694467131486906
86856.36214650336,86856.36214650336,0.244169161840911,0.16232805346179668
86856.36714650337,86856.36714650337,0.0771375999818428,0.16190073504837882
86856.37214650337,86856.37214650337,0.07830516402536371,0.1614618838947525
86856.37714650338,86856.37714650338,0.0794698377051671,0.16101165066452666
86856.38214650338,86856.38214650338,0.53628912831905,0.1605504016476375
86856.38714650339,86856.38714650339,0.08179028925171022,0.16007816749348153
86856.39214650339,86856.39214650339,0.08294582684687829,0.15959496556563058
86856.3971465034,86856.3971465034,0.08409803976314463,0.1591007014876449
86856.4021465034,86856.4021465034,0.08524685739983771,0.1585955737798367
86856.4071465034,86856.4071465034,0.08639214197495418,0.15807956056510086
86856.41214650341,86856.41214650341,0.08753363891208242,0.15755231532297756
86856.41714650342,86856.41714650342,0.14134521895817145,0.15701519589491683
86856.42214650342,86856.42214650342,0.4092460878809141,0.15646681705988644
86856.42714650343,86856.42714650343,0.09093572301484598,0.15590789718547324
86856.43214650343,86856.43214650343,0.09206169581629413,0.1553384409779974
86856.43714650343,86856.43714650343,0.0931834470844585,0.15475840989721468
86856.44214650344,86856.44214650344,0.09430090394761208,0.15416795878611594
86856.44714650344,86856.44714650344,0.09541387935746215,0.15356696958766627
86856.45214650345,86856.45214650345,0.09652228867975207,0.1529555718808427
86856.45714650345,86856.45714650345,0.09762614782529812,0.15233410454186397
86856.46214650346,86856.46214650346,0.09872506522935247,0.15170202231452562
86856.46714650346,86856.46714650346,0.0998193100125912,0.15106019079374663
86856.47214650347,86856.47214650347,0.10090853370353822,0.15040816688802322
86856.47714650347,86856.47714650347,0.10199262869902388,0.1497460258870081
86856.48214650348,86856.48214650348,0.1030714962138761,0.1490738574223807
86856.48714650348,86856.48714650348,0.6117858547016242,0.14839183990031118
86856.49214650349,86856.49214650349,0.10521332766982405,0.14770009701915401
86856.49714650349,86856.49714650349,0.1062759259973544,0.14699836951022988
86856.5021465035,86856.5021465035,0.10733296856615948,0.14628706780433043
86856.5071465035,86856.5071465035,0.10838423959307758,0.1455660736604326
86856.5121465035,86856.5121465035,0.1094295538526036,0.1448353359826263
86856.51714650351,86856.51714650351,0.11046922679661937,0.144095595013372
86856.52214650351,86856.52214650351,0.28514547151514635,0.14334614690426314
86856.52714650352,86856.52714650352,0.11253001644793643,0.14258746020678917
86856.53214650352,86856.53214650352,0.113551051520287,0.1418194206966508
86856.53714650353,86856.53714650353,0.683818419901304,0.14104226845521248
86856.54214650353,86856.54214650353,0.19457566227290915,0.14025599893965934
86856.54714650354,86856.54714650354,0.3227954203451972,0.1394606195554465
86856.55214650354,86856.55214650354,0.11757077626040244,0.13865643590080715
86856.55714650355,86856.55714650355,0.11855906785403439,0.13784332876787442
86856.56214650355,86856.56214650355,0.11954037507737555,0.13702127594262625
86856.56714650356,86856.56714650356,0.1205149412711953,0.13619078762208278
86856.57214650356,86856.57214650356,0.1214823261263453,0.13535151971925602
86856.57714650357,86856.57714650357,0.574120249457573,0.134503785373744
86856.58214650357,86856.58214650357,0.1233956119250213,0.1336475336831081
86856.58714650357,86856.58714650357,0.12434130248410281,0.13278296132062287
86856.59214650358,86856.59214650358,0.12527962207643992,0.13191017935219387
86856.59714650358,86856.59714650358,0.12621029247724075,0.1310290739876765
86856.60214650359,86856.60214650359,0.12713337964116625,0.13013990744719695
86856.6071465036,86856.6071465036,0.12804880521624373,0.12924278041726367
86856.6121465036,86856.6121465036,0.1289563034525978,0.12833760588399473
86856.6171465036,86856.6171465036,0.1298560423037342,0.12742473330982196
86856.6221465036,86856.6221465036,0.13074781861131676,0.1265041381140398
86856.62714650361,86856.62714650361,0.1316313883574956,0.12557576734655612
86856.63214650362,86856.63214650362,0.13250685551948996,0.12463989617885837
86856.63714650362,86856.63714650362,0.13337412407880514,0.12369660723241067
86856.64214650363,86856.64214650363,0.1342329344179054,0.12274584199337789
86856.64714650363,86856.64714650363,0.13508339626546692,0.1217878680347344
86856.65214650363,86856.65214650363,0.1359253820051759,0.12082274135827915
86856.65714650364,86856.65714650364,0.1367587475885533,0.11985050887991246
86856.66214650364,86856.66214650364,0.13758343662230915,0.5825350917248884
86856.66714650365,86856.66714650365,0.13839937783594738,0.11788519223705213
86856.67214650365,86856.67214650365,0.13920633302649502,0.11689219551602868
86856.67714650366,86856.67714650366,0.5930230555354833,0.11589261329956137
86856.68214650366,86856.68214650366,0.14079368746254053,0.11488645145968225
86856.68714650367,86856.68714650367,0.14157383463618256,0.11387382985308135
86856.69214650367,86856.69214650367,0.14234474038177766,0.1128547614204421
86856.69714650368,86856.69714650368,0.39708354178259014,0.11182940864925407
86856.70214650368,86856.70214650368,0.14385877359700397,0.11079787300319201
86856.70714650369,86856.70714650369,0.14460181437839356,0.16223157874155691
86856.71214650369,86856.71214650369,0.1453353317627563,0.10871670981202122
86856.7171465037,86856.7171465037,0.1460593213235977,0.10766725227501377
86856.7221465037,86856.7221465037,0.14677369736316753,0.10661202366099566
86856.7271465037,86856.7271465037,0.14747846996330122,0.1055511765316644
86856.73214650371,86856.73214650371,0.14817337976377304,0.10448470878484686
86856.73714650371,86856.73714650371,0.14885853137282115,0.10341282616861126
86856.74214650372,86856.74214650372,0.19656439450385224,0.1023355988113148
86856.74714650372,86856.74714650372,0.15019903200216483,0.1012531050298194
86856.75214650373,86856.75214650373,0.15085438677364024,0.10016555445349516
86856.75714650373,86856.75714650373,0.1514996015609667,0.0990729589016944
86856.76214650374,86856.76214650374,0.15213469408044392,0.09797546885162635
86856.76714650374,86856.76714650374,0.15275953505126827,0.09687316291603222
86856.77214650375,86856.77214650375,0.1533741005176275,0.09576616997037604
86856.77714650375,86856.77714650375,0.1539783401723197,0.09465460537686797
86856.78214650376,86856.78214650376,0.15457201024608253,0.09353850343233838
86856.78714650376,86856.78714650376,0.1551555561969762,0.09241818634322817
86856.79214650377,86856.79214650377,0.15572840566783033,0.12609623326500735
86856.79714650377,86856.79714650377,0.15629061562334587,0.09016476409312911
86856.80214650377,86856.80214650377,0.15684225788058118,0.0890319835184943
86856.80714650378,86856.80714650378,0.1573833269075907,0.08789533940422
86856.81214650378,86856.81214650378,0.15791336463965974,0.08675480383296902
86856.81714650379,86856.81714650379,0.15843301338842952,0.08561072923101264
86856.8221465038,86856.8221465038,0.1589414782616199,0.08446298108068244
86856.8271465038,86856.8271465038,0.15943924051979683,0.08331184815334325
86856.8321465038,86856.8321465038,0.15992609504316582,0.08215739339003303
86856.8371465038,86856.8371465038,0.16040182495139466,0.8017333374240797
86856.84214650381,86856.84214650381,0.16086651460802767,0.0798388748248288
86856.84714650382,86856.84714650382,0.16132018774160417,0.07867510101521395
86856.85214650382,86856.85214650382,0.16176263217798192,0.07750843541642856
86856.85714650383,86856.85714650383,0.16219401132537004,0.07633904638185195
86856.86214650383,86856.86214650383,0.5499221719460854,0.07516696526430833
86856.86714650384,86856.86714650384,0.1630229432255423,0.07399245410818914
86856.87214650384,86856.87214650384,0.16342056354399884,0.07281551874965415
86856.87714650384,86856.87714650384,0.1638067069994716,0.07163627451791063
86856.88214650385,86856.88214650385,0.16418156024362932,0.07045488442779724
86856.88714650385,86856.88714650385,0.16454488256307306,0.06927142926901211
86856.89214650386,86856.89214650386,0.16489690126558443,0.06808607273588738
86856.89714650386,86856.89714650386,0.16523738399355992,0.06689889957832916
86856.90214650387,86856.90214650387,0.16556630168439182,0.06571003041744676
86856.90714650387,86856.90714650387,0.1658837891307856,0.06451960674893749
86856.91214650388,86856.91214650388,0.5137005772100914,0.06332768232281562
86856.91714650388,86856.91714650388,0.16648368673693767,0.40550778512652524
86856.92214650389,86856.92214650389,0.5801246227195613,0.06094005554639565
86856.92714650389,86856.92714650389,0.16703709300860323,0.05974452539864346
86856.9321465039,86856.9321465039,0.16729624980664082,0.058548022646206496
86856.9371465039,86856.9371465039,0.1675436385036909,0.05735066243251429
86856.9421465039,86856.9421465039,0.1677793226200936,0.05615257044560383
86856.94714650391,86856.94714650391,0.16800323441550677,0.05495386322587523
86856.95214650391,86856.95214650391,0.1682153596065441,0.0537546605250284
86856.95714650392,86856.95714650392,0.16841555954936133,0.4133798947142173
86856.96214650392,86856.96214650392,0.16860398899523898,0.05135524517959284
86856.96714650393,86856.96714650393,0.16878055870960065,0.05015527512371089
86856.97214650393,86856.97214650393,0.16894537154323822,0.05104471139521603
86856.97714650394,86856.97714650394,0.16909806150752704,0.05224459164893094
86856.98214650394,86856.98214650394,0.16923887387861933,0.05344424643160104
86856.98714650395,86856.98714650395,0.16936787252380678,0.6091190893547914
86856.99214650395,86856.99214650395,0.16948480073888525,0.05584240246266333
86856.99714650396,86856.99714650396,0.16959002977625728,0.05704067387176452
86857.00214650396,86857.00214650396,0.16968320599704154,0.058238237825407636
86857.00714650397,86857.00714650397,0.16976423225182294,0.0594349648676434
86857.01214650397,86857.01214650397,0.16983328492219044,0.06063074606189161
86857.01714650397,86857.01714650397,0.16989061727435395,0.061825488017814
86857.02214650398,86857.02214650398,0.5636103357092787,0.06301903836523419
86857.02714650398,86857.02714650398,0.16996900649386032,0.0642112772060731
86857.03214650399,86857.03214650399,0.16999023490445087,0.06540210304623706
86857.037146504,86857.037146504,0.16999944867291558,0.06659138686861804
86857.042146504,86857.042146504,0.16999671381672193,0.06777901903187364
86857.047146504,86857.047146504,0.16998190311733544,0.06896486261418856
86857.05214650401,86857.05214650401,0.45864636127838176,0.07014880442557916
86857.05714650401,86857.05714650401,0.16991628702688938,0.07133073966662618
86857.06214650402,86857.06214650402,0.16986551261306376,0.0725105412942881
86857.06714650402,86857.06714650402,0.1698028441233716,0.07368811013017977
86857.07214650403,86857.07214650403,0.16972801795675194,0.07486327516881199
86857.07714650403,86857.07714650403,0.1696414096338174,0.07603599371322335
86857.08214650404,86857.08214650404,0.16954257542566117,0.19041283538639098
86857.08714650404,86857.08714650404,0.16943203861154102,0.07837344455933488
86857.09214650404,86857.09214650404,0.16930941121509563,0.0795379660476413
86857.09714650405,86857.09714650405,0.1691747341718761,0.08069950218032222
86857.10214650405,86857.10214650405,0.16902852758047332,0.08185806850546024
86857.10714650406,86857.10714650406,0.16887020040624165,0.5271883674855503
86857.11214650406,86857.11214650406,0.16869982539874126,0.0841653695684542
86857.11714650407,86857.11714650407,0.16851787625188916,0.5410549514431575
86857.12214650407,86857.12214650407,0.16832406014922216,0.0864591267094612
86857.12714650408,86857.12714650408,0.16811820264818503,0.08760052834760536
86857.13214650408,86857.13214650408,0.16790060002748547,0.08873819010370017
86857.13714650409,86857.13714650409,0.6331054396471752,0.08987202920174409
86857.14214650409,86857.14214650409,0.16743005119600188,0.09100177837751658
86857.1471465041,86857.1471465041,0.26280511492542996,0.09212750337290512
86857.1521465041,86857.1521465041,0.16691272041478905,0.8266146961914891
86857.1571465041,86857.1571465041,0.16663638528082356,0.09436618762499001
86857.16214650411,86857.16214650411,0.16634847911695103,0.09547893957611885
86857.16714650411,86857.16714650411,0.1660488614674991,0.09658711383368683
86857.17214650412,86857.17214650412,0.16573767745423987,0.09769064445118798
86857.17714650412,86857.17714650412,0.16541491961608804,0.09878940607556909
86857.18214650413,86857.18214650413,0.16508058538266981,0.09988327383019133
86857.18714650413,86857.18714650413,0.16473483138372055,0.19898890193219881
86857.19214650414,86857.19214650414,0.1643774486987351,0.10205594326782705
86857.19714650414,86857.19714650414,0.16400881699581787,0.10313457486902604
86857.20214650415,86857.20214650415,0.1636286661643329,0.10420783869369779
86857.20714650415,86857.20714650415,0.16323713038123408,0.10527567024661753
86857.21214650416,86857.21214650416,0.16283431508826754,0.10633799534236374
86857.21714650416,86857.21714650416,0.16242023743333264,0.10739469734611479
86857.22214650417,86857.22214650417,0.16199494399752892,0.1084456737012253
86857.22714650417,86857.22714650417,0.161558342149674,0.10949074851750537
86857.23214650418,86857.23214650418,0.1611106027967439,0.11052988275318046
86857.23714650418,86857.23714650418,0.16065188814361925,0.11156303835443074
86857.24214650418,86857.24214650418,0.16018203782786913,0.11258999967770321
86857.24714650419,86857.24714650419,0.1597011724908657,0.11361070410404614
86857.2521465042,86857.2521465042,0.15920924528320152,0.11462499374374267
86857.2571465042,86857.2571465042,0.3752195717869341,0.22241983461373904
86857.2621465042,86857.2621465042,0.15819292554102363,0.11663423178446392
86857.26714650421,86857.26714650421,0.15766832730503824,0.11762879215329457
86857.27214650421,86857.27214650421,0.15713316257028898,0.11861671479699445
86857.27714650422,86857.27714650422,0.3248247280238894,0.11959771992985017
86857.28214650422,86857.28214650422,0.5485624951089961,0.12057180404508616
86857.28714650423,86857.28714650423,0.15546339527247402,0.12153878667402496
86857.29214650423,86857.29214650423,0.15488550902693546,0.12249854242899667
86857.29714650424,86857.29714650424,0.15429746264404093,0.12345127652542104
86857.30214650424,86857.30214650424,0.1536987430500703,0.12439649567550705
86857.30714650424,86857.30714650424,0.25944839072288967,0.12533421568851383
86857.31214650425,86857.31214650425,0.15247033994643885,0.12626458076151198
86857.31714650425,86857.31714650425,0.15184080917918952,0.12718728458265385
86857.32214650426,86857.32214650426,0.1512009450518183,0.12810215634078415
86857.32714650426,86857.32714650426,0.15055103035489914,0.2140042254036282
86857.33214650427,86857.33214650427,0.43007099461962267,0.12990852700433653
86857.33714650427,86857.33714650427,0.14922116649806993,0.13079975714656758
86857.34214650428,86857.34214650428,0.14854126036020646,0.1316828783315325
86857.34714650428,86857.34714650428,0.147851553298524,0.13255787468988067
86857.35214650429,86857.35214650429,0.1471521096907568,0.1334246577062006
86857.35714650429,86857.35714650429,0.14644288183912524,0.1342830397140785
86857.3621465043,86857.3621465043,0.14572386976989465,0.13513286928687776
86857.3671465043,86857.3671465043,0.14499556018918494,0.13597442888905578
86857.3721465043,86857.3721465043,0.14425761715485708,0.1368072723089511
86857.37714650431,86857.37714650431,0.1435102186201033,0.13763140666844112
86857.38214650431,86857.38214650431,0.14275359596300535,0.1384468981019321
86857.38714650432,86857.38714650432,0.14198748656040305,0.13925334250035304
86857.39214650432,86857.39214650432,0.14121229166892738,0.14005096962402372
86857.39714650433,86857.39714650433,0.14042795867797173,0.14083957438050818
86857.40214650433,86857.40214650433,0.13963472562185114,0.14161924008294344
86857.40714650434,86857.40714650434,0.27099514430451865,0.5044407265669284
86857.41214650434,86857.41214650434,0.1380211691304403,0.14315072523565217
86857.41714650435,86857.41714650435,0.13720123642946777,0.14390262815139646
86857.42214650435,86857.42214650435,0.13637244768561047,0.1446449944176147
86857.42714650436,86857.42714650436,0.13553512720217706,0.14537801133049527
86857.43214650436,86857.43214650436,0.6287332145252658,0.37592449939256656
86857.43714650437,86857.43714650437,0.13383479086167888,0.14681522583413148
86857.44214650437,86857.44214650437,0.1329720402915203,0.14751938697034794
86857.44714650438,86857.44714650438,0.1321009944896315,0.25092569110467444
86857.45214650438,86857.45214650438,0.1312216188953112,0.14889824488555528
86857.45714650438,86857.45714650438,0.13033430668520515,0.1495730259731162
86857.46214650439,86857.46214650439,0.12943887810546748,0.15023774868296483
86857.4671465044,86857.4671465044,0.12853548905815915,0.15089242619423773
86857.4721465044,86857.4721465044,0.12762430039356656,0.15153708434505317
86857.4771465044,86857.4771465044,0.12670517714645962,0.15217136107578916
86857.48214650441,86857.48214650441,0.12577858343526174,0.15279568515943107
86857.48714650441,86857.48714650441,0.12484445740443355,0.1534097956664264
86857.49214650442,86857.49214650442,0.12390266875246354,0.15401332009073318
86857.49714650442,86857.49714650442,0.12295361779976531,0.15460662288100782
86857.50214650443,86857.50214650443,0.12199715586245574,0.15518929926325195
86857.50714650443,86857.50714650443,0.12103353873350486,0.542689578901139
86857.51214650444,86857.51214650444,0.12006291164914254,0.1563233052505773
86857.51714650444,86857.51714650444,0.11908517422374541,0.15687430198534288
86857.52214650445,86857.52214650445,0.118100565695422,0.157414668776986
86857.52714650445,86857.52714650445,0.11710907214223694,0.15794417446759257
86857.53214650445,86857.53214650445,0.11611094291990982,0.15846300536430846
86857.53714650446,86857.53714650446,0.11510624321021785,0.1589710584558095
86857.54214650446,86857.54214650446,0.11409492815679344,0.15946803938639703
86857.54714650447,86857.54714650447,0.11307727275650097,0.1599541907477991
86857.55214650447,86857.55214650447,0.11205330962186144,0.16042934762434194
86857.55714650448,86857.55714650448,0.11102312939309719,0.16089344167278144
86857.56214650448,86857.56214650448,0.10998679259514707,0.16134634622797586
86857.56714650449,86857.56714650449,0.15689326274775117,0.1617882761645068
86857.57214650449,86857.57214650449,0.10789636029830521,0.16221895360002406
86857.5771465045,86857.5771465045,0.10684238672101402,0.16263840748104832
86857.5821465045,86857.5821465045,0.10578269820729704,0.16304653527744692
86857.5871465045,86857.5871465045,0.10471748936844485,0.16344347543126445
86857.59214650451,86857.59214650451,0.10364671503002365,0.3594137535976941
86857.59714650451,86857.59714650451,0.10257074193101481,0.1642032446969622
86857.60214650452,86857.60214650452,0.1014893738982453,0.16456589759523535
86857.60714650452,86857.60714650452,0.10040288977090325,0.1649171644186789
86857.61214650453,86857.61214650453,0.09931138052633497,0.16525697412138476
86857.61714650453,86857.61714650453,0.09821496566929094,0.1655853201338284
86857.62214650454,86857.62214650454,0.09711370712567276,0.16590205700168092
86857.62714650454,86857.62714650454,0.09600766009523448,0.16620700998074292
86857.63214650455,86857.63214650455,0.09489709789256734,0.16650055591495957
86857.63714650455,86857.63714650455,0.09378202633131574,0.16678240189252935
86857.64214650456,86857.64214650456,0.09266258073713404,0.16705258057689165
86857.64714650456,86857.64714650456,0.091538879846987,0.16731108577741755
86857.65214650457,86857.65214650457,0.0904109936686226,0.16755777092552887
86857.65714650457,86857.65714650457,0.08927910922053864,0.167792825079793
86857.66214650458,86857.66214650458,0.08814326324593909,0.1680160011789496
86857.66714650458,86857.66714650458,0.08700356958664295,0.16822726767054655
86857.67214650458,86857.67214650458,0.08586028124414252,0.16842705122420318
86857.67714650459,86857.67714650459,0.08471330824823682,0.16861466936964448
86857.6821465046,86857.6821465046,0.08356288686415987,0.1687904995255703
86857.6871465046,86857.6871465046,0.08240915980151264,0.1856076906412285
86857.6921465046,86857.6921465046,0.0812521150618013,0.16910658872424886
86857.69714650461,86857.69714650461,0.08509666415448632,0.16924692484926168
86857.70214650461,86857.70214650461,0.07892887744285484,0.16937518104438423
86857.70714650462,86857.70714650462,0.07776282382023053,0.48645490807419783
86857.71214650462,86857.71214650462,0.2767649369963096,0.16959581035694996
86857.71714650463,86857.71714650463,0.07542254269876378,0.16968821289050368
86857.72214650463,86857.72214650463,0.0742485307566328,0.1697686608551087
86857.72714650464,86857.72714650464,0.07307208268504983,0.16983707375548193
86857.73214650464,86857.73214650464,0.14749191658199828,0.16989366460751568
86857.73714650465,86857.73714650465,0.07071240669898898,0.1699380602943867
86857.74214650465,86857.74214650465,0.06952940591473353,0.16997058399816736
86857.74714650465,86857.74714650465,0.06834445562920878,0.16999113508897457
86857.75214650466,86857.75214650466,0.06715765733077254,0.16999959952048135
86857.75714650466,86857.75714650466,0.06596915166540275,0.16999612032393596
86857.76214650467,86857.76214650467,0.1550585901409162,0.16998065314618774
86857.76714650467,86857.76714650467,0.06358745766267221,0.16995307448753721
86857.77214650468,86857.77214650468,0.0623945370497369,0.1699137799231522
86857.77714650468,86857.77714650468,0.06120035135344541,0.16986226042563832
86857.78214650469,86857.78214650469,0.060005041603120736,0.1697986968218508
86857.78714650469,86857.78714650469,0.05880874274064817,0.16972328094660083
86857.7921465047,86857.7921465047,0.057611564673960516,0.16963592527642507
86857.7971465047,86857.7971465047,0.23846589039486232,0.16953651293695407
86857.8021465047,86857.8021465047,0.055215034256852175,0.1694251745987924
86857.80714650471,86857.80714650471,0.054015928298659026,0.16930190221527933
86857.81214650472,86857.81214650472,0.05281642057213155,0.7110022254645182
86857.81714650472,86857.81714650472,0.051616631178492245,0.16901954507476658
86857.82214650472,86857.82214650472,0.05041668035281045,0.16886045468961794
86857.82714650473,86857.82714650473,0.050783311822169275,0.16868965676998757
86857.83214650473,86857.83214650473,0.051983226982027606,0.16850692778736082
86857.83714650474,86857.83714650474,0.05318294307120225,0.1683122897178382
86857.84214650474,86857.84214650474,0.22061679134337864,0.16810576617242884
86857.84714650475,86857.84714650475,0.05558129732283485,0.16788748563457745
86857.85214650475,86857.85214650475,0.056779699903071176,0.16765745662208478
86857.85714650476,86857.85714650476,0.057977427777416816,0.16741570367817135
86857.86214650476,86857.86214650476,0.05917434807639882,0.16716206225570673
86857.86714650477,86857.86714650477,0.060370360232235215,0.16689682847447712
86857.87214650477,86857.87214650477,0.06156532369038614,0.16661977792966934
86857.87714650478,86857.87714650478,0.06275912195397243,0.1663310001882541
86857.88214650478,86857.88214650478,0.06395168597454676,0.1660309641058933
86857.88714650479,86857.88714650479,0.06514282376864046,0.165719050329448
86857.89214650479,86857.89214650479,0.06633245960753607,0.16539565749985405
86857.8971465048,86857.8971465048,0.06752045121313194,0.16506064665247033
86857.9021465048,86857.9021465048,0.06870670012123867,0.16471419075208568
86857.9071465048,86857.9071465048,0.0698910631351522,0.16435617217145096
86857.91214650481,86857.91214650481,0.07107345666043469,0.16398683179232934
86857.91714650481,86857.91714650481,0.07225373208968625,0.16360603185321582
86857.92214650482,86857.92214650482,0.07343180028048903,0.16321396030964644
86857.92714650482,86857.92714650482,0.07460750754860962,0.1628104775494545
86857.93214650483,86857.93214650483,0.07578072771846445,0.16239560023848967
86857.93714650483,86857.93714650483,0.07695139021208824,0.16196957907215337
86857.94214650484,86857.94214650484,0.07811938420184063,0.16153246980050473
86857.94714650484,86857.94714650484,0.07928454680033403,0.1610841257694062
86857.95214650485,86857.95214650485,0.0804467790844186,0.16062466761426675
86857.95714650485,86857.95714650485,0.28839078977022575,0.16015402825696376
86857.96214650485,86857.96214650485,0.08276197719809474,0.15967255662700083
86857.96714650486,86857.96714650486,0.08391475750512994,0.15918015102813998
86857.97214650486,86857.97214650486,0.08506411848336184,0.4616974005036181
86857.97714650487,86857.97714650487,0.08620995725804198,0.158162403656095
86857.98214650487,86857.98214650487,0.08735221055113362,0.15763736224309316
86857.98714650488,86857.98714650488,0.08849072947497642,0.15710155580679702
86857.99214650488,86857.99214650488,0.08962537397378666,0.15655496710245273
86857.99714650489,86857.99714650489,0.0907560672941245,0.15599775369513127
86858.00214650489,86858.00214650489,0.09188261920273871,0.15542977396573376
86858.0071465049,86858.0071465049,0.09300501794382604,0.15485134635703432
86858.0121465049,86858.0121465049,0.09412318987381772,0.15426261121652354
86858.0171465049,86858.0171465049,0.0952369413711476,0.15366342428589305
86858.02214650491,86858.02214650491,0.0963460869559896,0.15305368267240624
86858.02714650492,86858.02714650492,0.097450633833839,0.1524337184034593
86858.03214650492,86858.03214650492,0.09855040838426839,0.15180345429570705
86858.03714650492,86858.03714650492,0.09964540860110248,0.15116317828529408
86858.04214650493,86858.04214650493,0.10073537979338376,0.15051265267589223
86858.04714650493,86858.04714650493,0.10182031730229989,0.1498521548077516
86858.05214650494,86858.05214650494,0.10290001381905876,0.14918155838107955
86858.05714650494,86858.05714650494,0.10397445514003355,0.14850111089316273
86858.06214650495,86858.06214650495,0.10504350593132705,0.14781082565192594
86858.06714650495,86858.06714650495,0.10610706127000229,0.14711077412529083
86858.07214650496,86858.07214650496,0.10716489476976097,0.1464008238272423
86858.07714650496,86858.07714650496,0.10821724294573619,0.76451111223796
86858.08214650497,86858.08214650497,0.10926357256502203,0.14495252180638113
86858.08714650497,86858.08714650497,0.11030409622085091,0.14421412204443543
86858.09214650498,86858.09214650498,0.11133854961073397,0.14346623530317812
86858.09714650498,86858.09714650498,0.1123668279050208,0.14270893939855467
86858.10214650499,86858.10214650499,0.11338882025005763,0.1419423027441023
86858.10714650499,86858.10714650499,0.11440461217401762,0.26029688219092706
86858.112146505,86858.112146505,0.11541390683537449,0.1403818437296189
86858.117146505,86858.117146505,0.11641666970140785,0.13958798867507982
86858.122146505,86858.122146505,0.11741272067291418,0.13878508083992278
86858.12714650501,86858.12714650501,0.1184020900032822,0.13797337494396442
86858.13214650501,86858.13214650501,0.11938460180605061,0.13715284904836597
86858.13714650502,86858.13714650502,0.12036019958557034,0.1363236385585713
86858.14214650502,86858.14214650502,0.12132876394222922,0.1354857981515987
86858.14714650503,86858.14714650503,0.12229013199267949,0.1346393336791668
86858.15214650503,86858.15214650503,0.12324437358429352,0.13378452525192236
86858.15714650504,86858.15714650504,0.12419118162805881,0.13292121334392043
86858.16214650504,86858.16214650504,0.12513060384604838,0.13204964826377102
86858.16714650505,86858.16714650505,0.1260626012538313,0.13116997360294064
86858.17214650505,86858.17214650505,0.126986892294646,0.13028207428938673
86858.17714650506,86858.17714650506,0.12790349924093825,0.436411118364855
86858.18214650506,86858.18214650506,0.12881233818497856,0.12848233592582473
86858.18714650506,86858.18714650506,0.12971326919548745,0.12757063450437417
86858.19214650507,86858.19214650507,0.13060633058002796,0.12665127390532288
86858.19714650507,86858.19714650507,0.13149126627520855,0.12572418416738748
86858.20214650508,86858.20214650508,0.13236795151401407,0.12478942930348055
86858.20714650508,86858.20714650508,0.13323655861939837,0.7879643787475299
86858.21214650509,86858.21214650509,0.13409669376074612,0.12289773423752087
86858.21714650509,86858.21714650509,0.13494857083570505,0.12194097030734995
86858.2221465051,86858.2221465051,0.13579185205912836,0.20667459340515149
86858.2271465051,86858.2271465051,0.13662653549344014,0.1200057693915615
86858.2321465051,86858.2321465051,0.1374525920822155,0.11902764238514135
86858.23714650511,86858.23714650511,0.13826992421536308,0.11804262908517328
86858.24214650512,86858.24214650512,0.13907843412038853,0.46875902755373167
86858.24714650512,86858.24714650512,0.1398780608304124,0.11605231259107868
86858.25214650512,86858.25214650512,0.14066848199448043,0.11504704719725113
86858.25714650513,86858.25714650513,0.14145023139245647,0.11403556067572536
86858.26214650513,86858.26214650513,0.1422225272467747,0.11301745185338748
86858.26714650514,86858.26714650514,0.14298574466560776,0.1119931404107669
86858.27214650514,86858.27214650514,0.1437396339642528,0.110962608559211
86858.27714650515,86858.27714650515,0.14448403501982168,0.10992590714857847
86858.28214650515,86858.28214650515,0.14521906678669236,0.10888326492618966
86858.28714650516,86858.28714650516,0.1459445387657041,0.10783471217892655
86858.29214650516,86858.29214650516,0.14666051424318421,0.1067804346406673
86858.29714650517,86858.29714650517,0.14736687701497334,0.10572050827569313
86858.30214650517,86858.30214650517,0.14806333374311215,0.10465491249817604
86858.30714650518,86858.30714650518,0.14875003341189524,0.10358387983181595
86858.31214650518,86858.31214650518,0.14942687445618688,0.10250749793863084
86858.31714650519,86858.31714650519,0.15009384860905628,0.10142590433214821
86858.32214650519,86858.32214650519,0.15075069554672094,0.10033910728370406
86858.3271465052,86858.3271465052,0.15139747201929976,0.0992472796814882
86858.3321465052,86858.3321465052,0.15203420096574968,0.09815057196559508
86858.3371465052,86858.3371465052,0.1526605961467286,0.0970489881373
86858.34214650521,86858.34214650521,0.1532768096549329,0.09594273890046634
86858.34714650521,86858.34714650521,0.7224856874273566,0.3488537571208605
86858.35214650522,86858.35214650522,0.15447822358837787,0.09371658110434293
86858.35714650522,86858.35714650522,0.1550633099035695,0.09259689680493649
86858.36214650523,86858.36214650523,0.1556377819416856,0.09147290925415152
86858.36714650523,86858.36714650523,0.29381589223118615,0.09034480457840519
86858.37214650524,86858.37214650524,0.15675520521208322,0.08921269341668454
86858.37714650524,86858.37714650524,0.15729783422893384,0.0880766108899158
86858.38214650525,86858.38214650525,0.15782973494048183,0.08693672228873944
86858.38714650525,86858.38714650525,0.15835088814458678,0.08579315302287975
86858.39214650526,86858.39214650526,0.4689993914468486,0.08464602424101755
86858.39714650526,86858.39714650526,0.15936075376550726,0.08349542735938216
86858.40214650526,86858.40214650526,0.15984904459214264,0.0823414033282955
86858.40714650527,86858.40714650527,0.1603268048215828,0.08118427936069378
86858.41214650527,86858.41214650527,0.16079322674485544,0.08002394834528229
86858.41714650528,86858.41714650528,0.16124868628129874,0.07886064691678207
86858.42214650528,86858.42214650528,0.16169290377258905,0.07769442920510257
86858.42714650529,86858.42714650529,0.16212601662351195,0.0765254589081609
86858.43214650529,86858.43214650529,0.16254787618746366,0.07535382707404947
86858.4371465053,86858.4371465053,0.1629586265613972,0.07417969204426274
86858.4421465053,86858.4421465053,0.16335797985707795,0.07300311620167672
86858.4471465053,86858.4471465053,0.16374597772339836,0.07182423639567866
86858.45214650531,86858.45214650531,0.4367219830540603,0.07064317914154382
86858.45714650532,86858.45714650532,0.1644878325244589,0.06946005253193936
86858.46214650532,86858.46214650532,0.16484170891346892,0.0682749994366724
86858.46714650533,86858.46714650533,0.1651839560002423,0.33736041173440745
86858.47214650533,86858.47214650533,0.16551479255074955,0.06589949812538265
86858.47714650533,86858.47714650533,0.165834036521921,0.3734411293977215
86858.48214650534,86858.48214650534,0.16614160400790867,0.06351762944780985
86858.48714650534,86858.48714650534,0.1664376512785483,0.06232461383042132
86858.49214650535,86858.49214650535,0.16672201592218996,0.06113036173410078
86858.49714650535,86858.49714650535,0.16699475911512868,0.05993500155276643
86858.50214650536,86858.50214650536,0.16725572173935402,0.05873864118058968
86858.50714650536,86858.50714650536,0.16750513550420895,0.05754141946157575
86858.51214650537,86858.51214650537,0.16774256187348535,0.05634342836364322
86858.51714650537,86858.51714650537,0.1679683654608945,0.05514481188074383
86858.52214650538,86858.52214650538,0.16818241096456538,0.05394568141775744
86858.52714650538,86858.52714650538,0.1683844984880809,0.052746151741799946
86858.53214650539,86858.53214650539,0.16857473333749504,0.05154634861592781
86858.53714650539,86858.53714650539,0.16875321387019923,0.050346392616408275
86858.5421465054,86858.5421465054,0.16891980708777127,0.05085359836069837
86858.5471465054,86858.5471465054,0.1690744643412674,0.05205350348210927
86858.5521465054,86858.5521465054,0.16921727676996187,0.0532532042622598
86858.55714650541,86858.55714650541,0.16934826705603198,0.05445258395492672
86858.56214650541,86858.56214650541,0.16946706044707846,0.055651508619524157
86858.56714650542,86858.56714650542,0.16957386192316934,0.056849862885845044
86858.57214650542,86858.57214650542,0.1696690279424337,0.18632348681278965
86858.57714650543,86858.57714650543,0.16975211057334913,0.05924442685707547
86858.58214650543,86858.58214650543,0.1698232115879954,0.06044037897439721
86858.58714650544,86858.58714650544,0.1698823344075095,0.061635287717340205
86858.59214650544,86858.59214650544,0.16992944415723577,0.0628290308927113
86858.59714650545,86858.59714650545,0.1699645137921548,0.06402148560473028
86858.60214650545,86858.60214650545,0.16998752569712702,0.06521252955971736
86858.60714650546,86858.60714650546,0.3953304135401914,0.06640209456114293
86858.61214650546,86858.61214650546,0.16999799277884814,0.06758999253502715
86858.61714650546,86858.61714650546,0.16998514755849756,0.06877613587112835
86858.62214650547,86858.62214650547,0.16996022482875725,0.0699603890861831
86858.62714650547,86858.62714650547,0.16992328208546628,0.07114264113851944
86858.63214650548,86858.63214650548,0.45159888624284883,0.07232278923202118
86858.63714650548,86858.63714650548,0.16981357486245105,0.07350070980676515
86858.64214650549,86858.64214650549,0.1697408203280178,0.07467629317351836
86858.6471465055,86858.6471465055,0.16965603779049712,0.07584939890953081
86858.6521465055,86858.6521465055,0.16955907671238035,0.07701987189049266
86858.6571465055,86858.6571465055,0.16945054925846695,0.07818773136910473
86858.6621465055,86858.6621465055,0.1693297712326274,0.07935270070550055
86858.66714650551,86858.66714650551,0.16919707968707173,0.0805147378030445
86858.67214650552,86858.67214650552,0.16905272804599838,0.08167379059010109
86858.67714650552,86858.67714650552,0.16889620612318343,0.08282960641379576
86858.68214650553,86858.68214650553,0.16872794851787407,0.08398218143173909
86858.68714650553,86858.68714650553,0.16854779900917324,0.08513135382161069
86858.69214650553,86858.69214650553,0.16835564685267915,0.08627696859963808
86858.69714650554,86858.69714650554,0.1681517732681522,0.30217947451273186
86858.70214650554,86858.70214650554,0.1679361193802196,0.08855728067598523
86858.70714650555,86858.70714650555,0.16770854886093728,0.08969167516149285
86858.71214650555,86858.71214650555,0.1674693515583068,0.09082214898894533
86858.71714650556,86858.71714650556,0.16721835104521696,0.09194852166168328
86858.72214650556,86858.72214650556,0.16695554520154063,0.09307066911422078
86858.72714650557,86858.72714650557,0.16668125373456089,0.09418858726945106
86858.73214650557,86858.73214650557,0.16639506510522956,0.09530200024153311
86858.73714650558,86858.73714650558,0.16609725077067847,0.23613807509938395
86858.74214650558,86858.74214650558,0.1657880098581014,0.09751520536482355
86858.74714650559,86858.74714650559,0.16546703560547935,0.09861470973397717
86858.75214650559,86858.75214650559,0.16513464588942914,0.09970940807522978
86858.7571465056,86858.7571465056,0.16479059196931362,0.10079907034508565
86858.7621465056,86858.7621465056,0.1644351518951706,0.1018836934974566
86858.7671465056,86858.7671465056,0.16406830555045512,0.10296314591469287
86858.77214650561,86858.77214650561,0.2917823260579332,0.1040372379226222
86858.77714650561,86858.77714650561,0.1633002346867315,0.44903862963257
86858.78214650562,86858.78214650562,0.16289926293796284,0.10616919701351549
86858.78714650562,86858.78714650562,0.16248698798701305,0.10722680791687818
86858.79214650563,86858.79214650563,0.16206345969891597,0.10827869427207173
86858.79714650563,86858.79714650563,0.2023849693995104,0.8544801244592026
86858.80214650564,86858.80214650564,0.16118268818368747,0.11036480440306745
86858.80714650564,86858.80714650564,0.16072575682093865,0.1113989406228089
86858.81214650565,86858.81214650565,0.16025760581678952,0.11242685593397475
86858.81714650565,86858.81714650565,0.15977833847086226,0.11344847533416146
86858.82214650566,86858.82214650566,0.15928834233085382,0.11446389355482496
86858.82714650566,86858.82714650566,0.15878732730981002,0.1154728139479846
86858.83214650567,86858.83214650567,0.15827540757978978,0.11647517154950209
86858.83714650567,86858.83714650567,0.1577526420633343,0.11747087049961166
86858.84214650567,86858.84214650567,0.15721913446063526,0.118459842915249
86858.84714650568,86858.84714650568,0.15667484053918462,0.11944192757563728
86858.85214650568,86858.85214650568,0.15612001883954083,0.4069346983815192
86858.85714650569,86858.85714650569,0.15555445288457398,0.12138526284645618
86858.8621465057,86858.8621465057,0.1549783501294181,0.1223462392343622
86858.8671465057,86858.8671465057,0.15439159506671482,0.1232998719660721
86858.8721465057,86858.8721465057,0.23231583880022832,0.12424644222514768
86858.8771465057,86858.8771465057,0.1531874395176047,0.12518548443266925
86858.88214650571,86858.88214650571,0.15256964017263674,0.1261169067661412
86858.88714650572,86858.88714650572,0.16043279198336438,0.12704085303296006
86858.89214650572,86858.89214650572,0.1513035403995977,0.12795697620100963
86858.89714650573,86858.89714650573,0.15065525191073034,0.12886535522277456
86858.90214650573,86858.90214650573,0.14999674332800386,0.1297657245746786
86858.90714650573,86858.90714650573,0.33922379956469073,0.1306583445710078
86858.91214650574,86858.91214650574,0.14865026460784653,0.13154281992603292
86858.91714650574,86858.91714650574,0.1479620471888108,0.13241906096936007
86858.92214650575,86858.92214650575,0.14726406859007926,0.13328708837497277
86858.92714650575,86858.92714650575,0.14655651362772318,0.13414691685544763
86858.93214650576,86858.93214650576,0.14583909824360092,0.1349981528407212
86858.93714650576,86858.93714650576,0.14511219883274054,0.22023400132822907
86858.94214650577,86858.94214650577,0.14437580397059369,0.13667523161961673
86858.94714650577,86858.94714650577,0.1436298377786304,0.13750069508849388
86858.95214650578,86858.95214650578,0.5678563340022377,0.13831751183174293
86858.95714650578,86858.95714650578,0.1421101048268755,0.13912548649604362
86858.96214650579,86858.96214650579,0.14133647011098333,0.13992463903224625
86858.96714650579,86858.96714650579,0.33549060061157704,0.14071467660381745
86858.9721465058,86858.9721465058,0.3987824878899213,0.14149561814375358
86858.9771465058,86858.9771465058,0.13896072222887496,0.23250616519515824
86858.9821465058,86858.9821465058,0.13815101140171906,0.1430301813889833
86858.98714650581,86858.98714650581,0.1373323789461561,0.14378347062632504
86858.99214650581,86858.99214650581,0.13650502832297987,0.14452739671038672
86858.99714650582,86858.99714650582,0.13566897910007553,0.14526181624876258
86859.00214650582,86859.00214650582,0.13482423437623534,0.5960855244924266
86859.00714650583,86859.00714650583,0.1339714091910118,0.14670216367233582
86859.01214650583,86859.01214650583,0.13311005842170173,0.14740795355974715
86859.01714650584,86859.01714650584,0.13224029043414284,0.1481038793695102
86859.02214650584,86859.02214650584,0.13136229376804762,0.14878998826147027
86859.02714650585,86859.02714650585,0.13047621228295297,0.7357844210515759
86859.03214650585,86859.03214650585,0.12958204869859205,0.15013258358422335
86859.03714650586,86859.03714650586,0.128679978641682,0.1507889393356851
86859.04214650586,86859.04214650586,0.12776987424860772,0.15143500114859823
86859.04714650587,86859.04714650587,0.12685214934894162,0.15207112139746282
86859.05214650587,86859.05214650587,0.12592664892162922,0.15269691391757081
86859.05714650587,86859.05714650587,0.12499375857254916,0.1533127127939468
86859.06214650588,86859.06214650588,0.12405319485718991,0.15391794378000337
86859.06714650588,86859.06714650588,0.12310515703819505,0.15451268245149724
86859.07214650589,86859.07214650589,0.12214999641905137,0.1550972388821823
86859.0771465059,86859.0771465059,0.12118754117456293,0.1556711716045628
86859.0821465059,86859.0821465059,0.1202179191930945,0.15623446526265175
86859.0871465059,86859.0871465059,0.11924133923676482,0.15678723160545022
86859.09214650591,86859.09214650591,0.11825783680318332,0.1573293231711371
86859.09714650591,86859.09714650591,0.11726750106814908,0.15786067137395746
86859.10214650592,86859.10214650592,0.11627039606469984,0.15838116508242137
86859.10714650592,86859.10714650592,0.11526665829073124,0.15889080960379257
86859.11214650593,86859.11214650593,0.11425646749174259,0.15938968848643317
86859.11714650593,86859.11714650593,0.9008830671215602,0.15987750857592364
86859.12214650594,86859.12214650594,0.11221683347301632,0.16035445269026263
86859.12714650594,86859.12714650594,0.11118757842441376,0.16082020770237623
86859.13214650594,86859.13214650594,0.11015224779729589,0.16127495621053742
86859.13714650595,86859.13714650595,0.1091109402312355,0.16171864964550184
86859.14214650595,86859.14214650595,0.1080636519339169,0.16215103915669918
86859.14714650596,86859.14714650596,0.107010661573835,0.16257241627367464
86859.15214650596,86859.15214650596,0.10595189619690187,0.162982392607937
86859.15714650597,86859.15714650597,0.10488750584514554,0.16338100852424542
86859.16214650597,86859.16214650597,0.10381762683996984,0.16376828293543116
86859.16714650598,86859.16714650598,0.10274245666993892,0.1641443728713437
86859.17214650598,86859.17214650598,0.10166192676981879,0.1645088644041309
86859.17714650599,86859.17714650599,0.10057627973930924,0.1648620129934001
86859.18214650599,86859.18214650599,0.09948548424321275,0.16520346528069285
86859.187146506,86859.187146506,0.09838986571958377,0.16553368842266514
86859.192146506,86859.192146506,0.09728935126049323,0.1658522249077454
86859.197146506,86859.197146506,0.0961841324940468,0.16615923710928457
86859.20214650601,86859.20214650601,0.0950742946992543,0.16645463425068563
86859.20714650601,86859.20714650601,0.09395988156058036,0.16673820803870518
86859.21214650602,86859.21214650602,0.0928411669739122,0.1670103587398933
86859.21714650602,86859.21714650602,0.2081529089528159,0.16727069940873276
86859.22214650603,86859.22214650603,0.0905909163844542,0.16751931636525288
86859.22714650603,86859.22714650603,0.08945961306944497,0.16775608243724796
86859.23214650604,86859.23214650604,0.08832433643422645,0.1679809831259856
86859.23714650604,86859.23714650604,0.08718536926513766,0.16819452510255578
86859.24214650605,86859.24214650605,0.08604260130741896,0.1683959947641377
86859.24714650605,86859.24714650605,0.08489619019272099,0.16858549368429102
86859.25214650606,86859.25214650606,0.08374635827622771,0.16876336782479048
86859.25714650606,86859.25714650606,0.08259313461981621,0.16892931102318604
86859.26214650607,86859.26214650607,0.08143661954729521,0.16908324418124143
86859.26714650607,86859.26714650607,0.08027699296998071,0.16922539105511103
86859.27214650607,86859.27214650607,0.0791142799047378,0.16935537937721185
86859.27714650608,86859.27714650608,0.07794872442070776,0.169473712500134
86859.28214650608,86859.28214650608,0.07678033785630786,0.1695799459730777
86859.28714650609,86859.28714650609,0.07560928776677368,0.16967428424478845
86859.2921465061,86859.2921465061,0.20602350443779485,0.169756606799923
86859.2971465061,86859.2971465061,0.07325961480833308,0.16982701929901542
86859.3021465061,86859.3021465061,0.07208125012682688,0.1698855219629392
86859.30714650611,86859.30714650611,0.07090065078300965,0.16993189636797643
86859.31214650611,86859.31214650611,0.06971796466473563,0.169966293515576
86859.31714650612,86859.31714650612,0.15515168424889156,0.16998858579284062
86859.32214650612,86859.32214650612,0.06734680177820286,0.1699991310080186
86859.32714650613,86859.32714650613,0.06615855266651635,0.5000654536090053
86859.33214650613,86859.33214650613,0.06496868704602637,0.16998386443421612
86859.33714650614,86859.33714650614,0.7963485672160514,0.2142576746842688
86859.34214650614,86859.34214650614,0.2577913474069608,0.16992070318625063
86859.34714650614,86859.34714650614,0.06139062140641969,0.1698712678760666
86859.35214650615,86859.35214650615,0.0601954867681287,0.1698096707802959
86859.35714650615,86859.35714650615,0.05899933272810427,0.1697360838240748
86859.36214650616,86859.36214650616,0.057802289450734824,0.16965067039241608
86859.36714650616,86859.36714650616,0.056604453254563425,0.1695530949683593
86859.37214650617,86859.37214650617,0.05540596925877238,0.16944379949915836
86859.37714650617,86859.37714650617,0.054206932965311636,0.16932230250904862
86859.38214650618,86859.38214650618,0.05300748161309579,0.16918899766167914
86859.38714650618,86859.38714650618,0.051807731106986075,0.1690438758434401
86859.39214650619,86859.39214650619,0.05060779675461263,0.16888665359429708
86859.39714650619,86859.39714650619,0.30490250503786065,0.1687175916502896
86859.4021465062,86859.4021465062,0.21836690442961096,0.16853678358739715
86859.4071465062,86859.4071465062,0.052991888260973494,0.1683440743701862
86859.4121465062,86859.4121465062,0.05419133922323384,0.16813933533853226
86859.41714650621,86859.41714650621,0.05539038267661769,0.16792311138840774
86859.42214650621,86859.42214650621,0.05658888124690746,0.16769493178793038
86859.42714650622,86859.42714650622,0.057786720259008516,0.1674549697816477
86859.43214650622,86859.43214650622,0.05898378312388122,0.16720329940696976
86859.43714650623,86859.43714650623,0.060179940012582395,0.16693981487378215
86859.44214650623,86859.44214650623,0.06137508454305859,0.537258279355947
86859.44714650624,86859.44714650624,0.06256906941091836,0.1663777296525183
86859.45214650624,86859.45214650624,0.06376183994679833,0.16607950831701968
86859.45714650625,86859.45714650625,0.06495322364485681,0.1657695656573286
86859.46214650625,86859.46214650625,0.0661430987111245,0.16544793785028775
86859.46714650626,86859.46714650626,0.06733136840528314,0.16511482904149846
86859.47214650626,86859.47214650626,0.06851789777149528,0.16477015970734987
86859.47714650627,86859.47714650627,0.06970258041687862,0.16441404443392615
86859.48214650627,86859.48214650627,0.0708852744973793,0.4142522839557804
86859.48714650628,86859.48714650628,0.07206589215617644,0.16366739411869677
86859.49214650628,86859.49214650628,0.07324431970168176,0.163277118136375
86859.49714650628,86859.49714650628,0.07442038746435649,0.16287534340881987
86859.50214650629,86859.50214650629,0.07559403562861777,0.16246239010040553
86859.5071465063,86859.5071465063,0.1758419709984333,0.16203822884209532
86859.5121465063,86859.5121465063,0.07793355000508871,0.16160283875079232
86859.5171465063,86859.5171465063,0.07909917123519215,0.161156280754581
86859.52214650631,86859.52214650631,0.08026186827518758,0.160698553312682
86859.52714650631,86859.52714650631,0.08142156347393031,0.1602298446688687
86859.53214650632,86859.53214650632,0.08257812250290289,0.15975013013222417
86859.53714650632,86859.53714650632,0.08373138120427298,0.2747035627012363
86859.54214650633,86859.54214650633,0.08488128868463986,0.15875761381645107
86859.54714650633,86859.54714650633,0.08602765852616238,0.15824490588703688
86859.55214650634,86859.55214650634,0.08717052348941551,0.15772166754484024
86859.55714650634,86859.55714650634,0.08830961535216067,0.38794191348750906
86859.56214650635,86859.56214650635,0.08944491626398805,0.15664270523234786
86859.56714650635,86859.56714650635,0.09057622535446745,0.15608712615675988
86859.57214650635,86859.57214650635,0.09170351175832137,0.15552102945200585
86859.57714650636,86859.57714650636,0.09282657932548775,0.1549442593319272
86859.58214650636,86859.58214650636,0.5892701831590528,0.15435716989249715
86859.58714650637,86859.58714650637,0.6014874849349401,0.15375947090716277
86859.59214650637,86859.59214650637,0.0961697186115374,0.15315142258703318
86859.59714650638,86859.59714650638,0.0972750308305898,0.15253313984706127
86859.60214650638,86859.60214650638,0.43249804204543035,0.15190455872607975
86859.60714650639,86859.60714650639,0.09947131792580789,0.15126578024214885
86859.61214650639,86859.61214650639,0.10056211195294006,0.15061691253178394
86859.6171465064,86859.6171465064,0.10164789264863304,0.14995806544900842
86859.6221465064,86859.6221465064,0.10272843221141492,0.14928907346988668
86859.6271465064,86859.6271465064,0.1038037126796473,0.14861018009228003
86859.63214650641,86859.63214650641,0.10487348513769272,0.14792119929994546
86859.63714650641,86859.63714650641,0.10593808560106494,0.1472229873215477
86859.64214650642,86859.64214650642,0.10699686874565506,0.1465146585472242
86859.64714650642,86859.64714650642,0.4150734174453897,0.14579676131651698
86859.65214650643,86859.65214650643,0.10909732371018076,0.2842227265422478
86859.65714650643,86859.65714650643,0.11013879881418914,0.14433238865328205
86859.66214650644,86859.66214650644,0.2495433626284882,0.14358594917115292
86859.66714650644,86859.66714650644,0.11220349031543402,0.14283019700031094
86859.67214650645,86859.67214650645,0.11322651050638266,0.14206507121021014
86859.67714650645,86859.67714650645,0.11424322139013017,0.1412907608864515
86859.68214650646,86859.68214650646,0.17716984758590998,0.14050743237314342
86859.68714650646,86859.68714650646,0.11625735698533086,0.1397149565681113
86859.69214650647,86859.69214650647,0.11725455752221928,0.23670975485548468
86859.69714650647,86859.69714650647,0.21565656424717788,0.13810309372136859
86859.70214650648,86859.70214650648,0.11922856757986255,0.6160960006095578
86859.70714650648,86859.70714650648,0.44400935716435475,0.13645626842171482
86859.71214650648,86859.71214650648,0.12117493849313457,0.13561976081495378
86859.71714650649,86859.71714650649,0.1221375690270614,0.13477479437216164
86859.7221465065,86859.7221465065,0.12309288467784633,0.13392123021368915
86859.7271465065,86859.7271465065,0.12404089536333208,0.1330592805435941
86859.7321465065,86859.7321465065,0.12498155046758877,0.13218907913180744
86859.73714650651,86859.73714650651,0.12591463929264438,0.1313105845423414
86859.74214650651,86859.74214650651,0.5432890023183052,0.13042402341750833
86859.74714650652,86859.74714650652,0.12775791436980913,0.12952926011206436
86859.75214650652,86859.75214650652,0.12866817958824156,0.12862687426585398
86859.75714650653,86859.75714650653,0.12957033430884202,0.1277163785737587
86859.76214650653,86859.76214650653,0.13046466418866964,0.12679824016769373
86859.76714650654,86859.76714650654,0.1313507939388849,0.1258722754827849
86859.77214650654,86859.77214650654,0.13222889048629358,0.12493881964200304
86859.77714650655,86859.77714650655,0.1330987420736834,0.12399784973526938
86859.78214650655,86859.78214650655,0.13396025907610187,0.12304945831177164
86859.78714650655,86859.78714650655,0.13481339349704446,0.12209377440084139
86859.79214650656,86859.79214650656,0.13565816339563505,0.12113097877748899
86859.79714650656,86859.79714650656,0.136494206918168,0.12016093573946501
86859.80214650657,86859.80214650657,0.13732163156367982,0.1191839027383988
86859.80714650657,86859.80714650657,0.13814037515805466,0.11819999221814188
86859.81214650658,86859.81214650658,0.13895028106007454,0.11720924258564282
86859.81714650658,86859.81714650658,0.13975134892276186,0.11965576191700861
86859.82214650659,86859.82214650659,0.14054328839053157,0.1152076522315476
86859.82714650659,86859.82714650659,0.14132628990944857,0.11419705436812096
86859.8321465066,86859.8321465066,0.14210015850650023,0.11318003605663601
86859.8371465066,86859.8371465066,0.14286483564501384,0.4599886072901807
86859.8421465066,86859.8421465066,0.6886163015672325,0.11112709669018064
86859.84714650661,86859.84714650661,0.14436616874730399,0.11009145947154687
86859.85214650662,86859.85214650662,0.14510271798989088,0.1443044902996502
86859.85714650662,86859.85714650662,0.14582970085120994,0.10800213851219848
86859.86214650662,86859.86214650662,0.14654711569089524,0.10694871890349965
86859.86714650663,86859.86714650663,0.1472549080604949,0.10588962448324526
86859.87214650663,86859.87214650663,0.1479529402296809,0.10482492190094238
86859.87714650664,86859.87714650664,0.14864130164539704,0.10375480623524412
86859.88214650664,86859.88214650664,0.14931976676086378,0.10267929589882853
86859.88714650665,86859.88714650665,0.45399843659418837,0.10159847223083092
86859.89214650665,86859.89214650665,0.4820067982427318,0.10051251321537126
86859.89714650666,86859.89714650666,0.4504069043998673,0.09942155373087991
86859.90214650666,86859.90214650666,0.1519334346188126,0.09832554592198435
86859.90714650667,86859.90714650667,0.15256154626749277,0.40638944558265117
86859.91214650667,86859.91214650667,0.15317938083800134,0.09611924618907638
86859.91714650668,86859.91714650668,0.15378701101496706,0.09500916813098553
86859.92214650668,86859.92214650668,0.15438402676003152,0.09389448722914771
86859.92714650668,86859.92714650668,0.15497066319977307,0.43192467724116085
86859.93214650669,86859.93214650669,0.15554709940374012,0.09165224306762904
86859.9371465067,86859.9371465067,0.1561126985970291,0.09052476313688028
86859.9421465067,86859.9421465067,0.15666767835244896,0.20363668660560125
86859.9471465067,86859.9471465067,0.15721211397580875,0.08825780139038365
86859.95214650671,86859.95214650671,0.1577457472911857,0.08711851850835982
86859.95714650671,86859.95714650671,0.15826860974030338,0.08597552586433903
86859.96214650672,86859.96214650672,0.1587806949781158,0.08482895197461714
86859.96714650672,86859.96714650672,0.15928185033481584,0.08367887877001877
86859.97214650673,86859.97214650673,0.15977212309815267,0.08252545170249964
86859.97714650673,86859.97714650673,0.16025145502751864,0.08136878199204618
86859.98214650674,86859.98214650674,0.16071959675615138,0.08020892903648337
86859.98714650674,86859.98714650674,0.1611768850404335,0.07904611483638228
86859.99214650675,86859.99214650675,0.1616229883141024,0.07788037674357368
86859.99714650675,86859.99714650675,0.16205783625372003,0.0767118274551737
86860.00214650675,86860.00214650675,0.16248152392013473,0.07554061861415703
86860.00714650676,86860.00714650676,0.1628940016117435,0.07436686405817912
86860.01214650676,86860.01214650676,0.16329508845693333,0.07319065130109692
86860.01714650677,86860.01714650677,0.16368490797391771,0.07201213301360682
86860.02214650677,86860.02214650677,0.4511523144068247,0.07083143429237072
86860.02714650678,86860.02714650678,0.1644304566625157,0.5200122727633252
86860.03214650678,86860.03214650678,0.16478603794354366,0.06846384983595065
86860.03714650679,86860.03714650679,0.1651302107103735,0.06727724388904008
86860.04214650679,86860.04214650679,0.1654627773441455,0.06608889622700866
86860.0471465068,86860.0471465068,0.16578394824066398,0.06489896016320378
86860.0521465068,86860.0521465068,0.1660934192944693,0.06370751783581889
86860.0571465068,86860.0571465068,0.16639118165143965,0.06251469448937357
86860.06214650681,86860.06214650681,0.24553642627056868,0.06132064825189277
86860.06714650682,86860.06714650682,0.16695205939100724,0.24301250444300365
86860.07214650682,86860.07214650682,0.1672149952404945,0.05892924505717599
86860.07714650682,86860.07714650682,0.16746623165435934,0.05773215097384896
86860.08214650683,86860.08214650683,0.16770550922008617,0.05653427047568083
86860.08714650683,86860.08714650683,0.1679331760110969,0.055335746493532414
86860.09214650684,86860.09214650684,0.16814885810169405,0.054136681849008175
86860.09714650684,86860.09714650684,0.1683530045540391,0.05293721380693071
86860.10214650685,86860.10214650685,0.16854528151861095,0.05173744937955364
86860.10714650685,86860.10714650685,0.16872570974367346,0.05053750968598472
86860.11214650686,86860.11214650686,0.6096309749567892,0.050662484320002664
86860.11714650686,86860.11714650686,0.16905066052690632,0.4800785717154168
86860.12214650687,86860.12214650687,0.16919538286110855,0.13626923787547296
86860.12714650687,86860.12714650687,0.16932803153850212,0.05426158523152352
86860.13214650688,86860.13214650688,0.16944892401018463,0.055460595985044436
86860.13714650688,86860.13714650688,0.3648589127724931,0.056659057236025524
86860.14214650689,86860.14214650689,0.1696548677494597,0.057856864000491524
86860.14714650689,86860.14714650689,0.16973974748051132,0.05905387005714823
86860.1521465069,86860.1521465069,0.16981275413717806,0.06024997783428268
86860.1571465069,86860.1571465069,0.169873790146693,0.06144506188886104
86860.1621465069,86860.1621465069,0.16992276165701936,0.0626389939126264
86860.16714650691,86860.16714650691,0.42342055776383125,0.06383166505537402
86860.17214650691,86860.17214650691,0.23647104047306228,0.06502296105971934
86860.17714650692,86860.17714650692,0.16999785431774783,0.06621274361492509
86860.18214650692,86860.18214650692,0.16999890513505797,0.06740091212456328
86860.18714650693,86860.18714650693,0.16998787269348858,0.5878190240477386
86860.19214650693,86860.19214650693,0.16996469197041814,0.06977185917018973
86860.19714650694,86860.19714650694,0.1699299152746225,0.07095447894238333
86860.20214650694,86860.20214650694,0.16988301601552963,0.07213498298834953
86860.20714650695,86860.20714650695,0.16982414311965285,0.07331327743794255
86860.21214650695,86860.21214650695,0.16975308678301085,0.18846872154663857
86860.21714650696,86860.21714650696,0.16967023647643595,0.07566271159001234
86860.22214650696,86860.22214650696,0.16957547588010177,0.07683366972042197
86860.22714650696,86860.22714650696,0.16946858710243076,0.07800190663639564
86860.23214650697,86860.23214650697,0.16934980737585223,0.07916735583134175
86860.23714650697,86860.23714650697,0.1692191316379492,0.08032989786977233
86860.24214650698,86860.24214650698,0.1690763632961868,0.1925876591978285
86860.24714650698,86860.24714650698,0.16892193502987427,0.08264574337121383
86860.25214650699,86860.25214650699,0.16875554706872922,0.08379884256321331
86860.25714650699,86860.25714650699,0.16857721151474556,0.08494854146990888
86860.262146507,86860.262146507,0.1683869976934715,0.0860947385599372
86860.267146507,86860.267146507,0.1681851321811705,0.08723738397316039
86860.272146507,86860.272146507,0.16797121189531447,0.08837623151258449
86860.27714650701,86860.27714650701,0.1677455673465205,0.08951126388913552
86860.28214650702,86860.28214650702,0.1675082459337425,0.09064237817900242
86860.28714650702,86860.28714650702,0.16725906912214783,0.09176939243974717
86860.29214650702,86860.29214650702,0.18439342649945845,0.09289226882750334
86860.29714650703,86860.29714650703,0.16672565023628308,0.09401080809483722
86860.30214650703,86860.30214650703,0.16644133192398705,0.09512493695410718
86860.30714650704,86860.30714650704,0.16614546685232998,0.09623459043506746
86860.31214650704,86860.31214650704,0.1658380097757225,0.09733962996969804
86860.31714650705,86860.31714650705,0.5993611216028316,0.09843995557751943
86860.32214650705,86860.32214650705,0.1651883010783229,0.09953536716231005
86860.32714650706,86860.32714650706,0.1648460954251379,0.10062583559296794
86860.33214650706,86860.33214650706,0.16449255710093905,0.10171130862324258
86860.33714650707,86860.33714650707,0.1641274417089312,0.10279155343372243
86860.34214650707,86860.34214650707,0.1637509180795498,0.10386652072271065
86860.34714650708,86860.34714650708,0.16336312949701956,0.10493615403964757
86860.35214650708,86860.35214650708,0.1629638867885205,0.10600023724765834
86860.35714650709,86860.35714650709,0.16255336416383465,0.10705872788478178
86860.36214650709,86860.36214650709,0.16213159973454222,0.10811151941240953
86860.3671465071,86860.3671465071,0.1616986029382525,0.10915848947999138
86860.3721465071,86860.3721465071,0.16125458687788058,0.11019962455057995
86860.3771465071,86860.3771465071,0.16079915354338797,0.1112345814024146
86860.38214650711,86860.38214650711,0.16033294250490054,0.11226358135462959
86860.38714650711,86860.38714650711,0.15985546234186293,0.11328622230083477
86860.39214650712,86860.39214650712,0.15936717703295483,0.11430263835417385
86860.39714650712,86860.39714650712,0.158867837904265,0.11531255591137876
86860.40214650713,86860.40214650713,0.1583576499253721,0.11631596455420877
86860.40714650713,86860.40714650713,0.15783664129366312,0.11731275097465294
86860.41214650714,86860.41214650714,0.15730486061774843,0.11830281387570392
86860.41714650714,86860.41714650714,0.1567622309009987,0.11928597031443773
86860.42214650715,86860.42214650715,0.1562091080498517,0.12026231710857918
86860.42714650715,86860.42714650715,0.15564525946552255,0.12123156917995825
86860.43214650716,86860.43214650716,0.15507082623675816,0.12219368403180936
86860.43714650716,86860.43714650716,0.154485908036411,0.12314859419400855
86860.44214650716,86860.44214650716,0.1538906041472159,0.12409623400408465
86860.44714650717,86860.44714650717,0.15328480955001453,0.1250363917402924
86860.45214650717,86860.45214650717,0.1526686971926156,0.4049985004319031
86860.45714650718,86860.45714650718,0.3367792527607038,0.12689418888500564
86860.46214650718,86860.46214650718,0.4198564734416424,0.8295533636878538
86860.46714650719,86860.46714650719,0.15075918381881173,0.1287212128916932
86860.47214650719,86860.47214650719,0.15010246742466973,0.12962299866146929
86860.4771465072,86860.4771465072,0.1494356015241811,0.13051671047693064
86860.4821465072,86860.4821465072,0.14875888900857298,0.13140244786465466
86860.4871465072,86860.4871465072,0.14807226105626625,0.13228001182675936
86860.49214650721,86860.49214650721,0.1473759094599509,0.13314941805644895
86860.49714650722,86860.49714650722,0.14666980402044236,0.1340104965800815
86860.50214650722,86860.50214650722,0.14595404889948074,0.13486319013013767
86860.50714650723,86860.50714650723,0.14522858285898382,0.13570729491861946
86860.51214650723,86860.51214650723,0.14449364721758193,0.13654287566941065
86860.51714650723,86860.51714650723,0.14374937767732834,0.13736990917584554
86860.52214650724,86860.52214650724,0.14299559151404542,0.13818807450132392
86860.52714650724,86860.52714650724,0.14223249348106565,0.13899740783212539
86860.53214650725,86860.53214650725,0.1414602098220069,0.13979787654259043
86860.53714650725,86860.53714650725,0.14067880696771767,0.14058939169129195
86860.54214650726,86860.54214650726,0.13988832577086094,0.1413718374972757
86860.54714650726,86860.54714650726,0.13908895936046328,0.1421452532190811
86860.55214650727,86860.55214650727,0.13828051350031592,0.14290927858574673
86860.55714650727,86860.55714650727,0.1374632783689595,0.1436640522387507
86860.56214650728,86860.56214650728,0.13663739436928218,0.14440956444464859
86860.56714650728,86860.56714650728,0.1358027197598841,0.14514549776676935
86860.57214650729,86860.57214650729,0.13495952597656594,0.3183185622151605
86860.57714650729,86860.57714650729,0.13410791446848616,0.14658897111712474
86860.5821465073,86860.5821465073,0.13324778652263528,0.1472961799751876
86860.5871465073,86860.5871465073,0.13237930216753552,0.14799362065442753
86860.5921465073,86860.5921465073,0.13150272156559606,0.1486814311193825
86860.59714650731,86860.59714650731,0.1306177731935035,0.14935910901954888
86860.60214650731,86860.60214650731,0.21988735992430683,0.15002703720930816
86860.60714650732,86860.60714650732,0.12882412692340886,0.150685015171465
86860.61214650732,86860.61214650732,0.1279154341102869,0.15133289970121167
86860.61714650733,86860.61714650733,0.1269988940243511,0.15197057894615212
86860.62214650733,86860.62214650733,0.1260745775855619,0.15259795711965696
86860.62714650734,86860.62714650734,0.12514286144563533,0.15321535670153924
86860.63214650734,86860.63214650734,0.12420347028436539,0.15382221542375876
86860.63714650735,86860.63714650735,0.12325667351703204,0.15441871062073087
86860.64214650735,86860.64214650735,0.12230264996092871,0.15500490564889344
86860.64714650736,86860.64714650736,0.6215977644306667,0.1555804452171485
86860.65214650736,86860.65214650736,0.12037281834706079,0.15614546176789612
86860.65714650736,86860.65714650736,0.11939739230207667,0.15669998843911379
86860.66214650737,86860.66214650737,0.11841489356700369,0.15724364065950178
86860.66714650737,86860.66714650737,0.11742559595496654,0.15777663276868234
86860.67214650738,86860.67214650738,0.11642959590239771,0.15829891101288301
86860.67714650738,86860.67714650738,0.11542700854278837,0.15881045269387156
86860.68214650739,86860.68214650739,0.11441778013088989,0.15931095131426753
86860.6871465074,86860.6871465074,0.11340213327077968,0.15980055735339843
86860.6921465074,86860.6921465074,0.11238011677691774,0.16027913119393652
86860.6971465074,86860.6971465074,0.46349944977873037,0.1607467038011477
86860.7021465074,86860.7021465074,0.11031754633346008,0.16120327666044781
86860.70714650741,86860.70714650741,0.1092771736048269,0.16164871456954674
86860.71214650742,86860.71214650742,0.10823089417146109,0.16208302926603138
86860.71714650742,86860.71714650742,0.10717869253109287,0.16250594366646234
86860.72214650743,86860.72214650743,0.10612078813657445,0.16291763245736676
86860.72714650743,86860.72714650743,0.10505734663253123,0.16331817921391278
